44100038845646,1.8687218E7,0.0
44100048611271,1.8596296E7,0.0
44100058376896,1.8504E7,0.0
44100068173041,1.8441642E7,0.0
44100077938666,1.8409002E7,0.0
44100087704291,1.841346E7,0.0
44100097469916,1.8409514E7,0.0
44100107235541,1.8398408E7,0.0
44100117031687,1.8372764E7,0.0
44100126797312,1.8321364E7,0.0
44100136562937,1.8264288E7,0.0
44100146328562,1.8200924E7,0.0
44100156094187,1.816293E7,0.0
44100165859812,1.8120612E7,0.0
44100175625437,1.810764E7,0.0
44100185391062,1.8114674E7,0.0
44100195156687,1.8144008E7,0.0
44100204922312,1.8178438E7,0.0
44100214718458,1.8200816E7,0.0
44100224484083,1.8225142E7,0.0
44100234249708,1.8238148E7,0.0
44100244015333,1.8250096E7,0.0
44100253780958,1.8243354E7,0.0
44100263577104,1.8258568E7,0.0
44100273342729,1.8277254E7,0.0
44100283108354,1.828224E7,0.0
44100292873979,1.8302204E7,0.0
44100302639604,1.8325418E7,0.0
44100314585229,1.8381896E7,0.0
44100324350854,1.8409002E7,0.0
44100334116479,1.8401532E7,0.0
44100343882104,1.8356946E7,0.0
44100353647729,1.8279884E7,0.0
44100363413354,1.8136208E7,0.0
44100373178979,1.795142E7,0.0
44100382944604,1.7764288E7,0.0
44100392710229,1.7610808E7,0.0
44100402475854,1.7500648E7,0.0
44100412272000,1.7427278E7,0.0
44100422037625,1.7395312E7,0.0
44100431803250,1.7391878E7,0.0
44100441568875,1.7392882E7,0.0
44100451334500,1.7379568E7,0.0
44100461130646,1.7341832E7,0.0
44100470896271,1.7267128E7,0.0
44100480661896,1.720466E7,0.0
44100490427521,1.7174996E7,0.0
44100500193146,1.7169664E7,0.0
44100509989291,1.7208036E7,0.0
44100519754916,1.7261226E7,0.0
44100529520541,1.7340972E7,0.0
44100539286166,1.7396628E7,0.0
44100549051791,1.7434528E7,0.0
44100558847937,1.7457962E7,0.0
44100568613562,1.7384428E7,0.0
44100578379187,1.7252588E7,0.0
44100588144812,1.7117936E7,0.0
44100597910437,1.7000086E7,0.0
44100607706583,1.6894496E7,0.0
44100617472208,1.6797688E7,0.0
44100627237833,1.6739771E7,0.0
44100637003458,1.6699497E7,0.0
44100646769083,1.665489E7,0.0
44100656534708,1.6582908E7,0.0
44100666300333,1.6525646E7,0.0
44100676065958,1.6452657E7,0.0
44100685831583,1.6411506E7,0.0
44100695597208,1.6383724E7,0.0
44100705362833,1.6353348E7,0.0
44100715128458,1.6329019E7,0.0
44100724894083,1.6292818E7,0.0
44100734690177,1.6259866E7,0.0
44100744455802,1.6223392E7,0.0
44100754251948,1.6199867E7,0.0
44100764017573,1.6186167E7,0.0
44100773783198,1.6167463E7,0.0
44100783579344,1.6152523E7,0.0
44100793344969,1.613033E7,0.0
44100803141114,1.6120848E7,0.0
44100812876219,1.6105688E7,0.0
44100822641844,1.6099242E7,0.0
44100832407469,1.6091352E7,0.0
44100842142573,1.6092721E7,0.0
44100851908198,1.6081926E7,0.0
44100861673823,1.608746E7,0.0
44100871408927,1.6097798E7,0.0
44100881174552,1.6108173E7,0.0
44100890940177,1.6121616E7,0.0
44100900705802,1.6130914E7,0.0
44100910471427,1.6156048E7,0.0
44100920237052,1.616938E7,0.0
44100930002677,1.6171572E7,0.0
44100939798823,1.618834E7,0.0
44100949564448,1.6181947E7,0.0
44100959330073,1.616337E7,0.0
44100969126219,1.6143737E7,0.0
44100978891844,1.6115387E7,0.0
44100988657469,1.6077597E7,0.0
44100998453614,1.604671E7,0.0
44101008219239,1.6010801E7,0.0
44101017984864,1.5964717E7,0.0
44101027750489,1.5929701E7,0.0
44101037516114,1.5890852E7,0.0
44101047281739,1.5875163E7,0.0
44101057047364,1.5853883E7,0.0
44101066812989,1.584404E7,0.0
44101076578614,1.5842704E7,0.0
44101086344239,1.5846193E7,0.0
44101096109864,1.5839983E7,0.0
44101105875489,1.5836714E7,0.0
44101115641114,1.5832129E7,0.0
44101125406739,1.581286E7,0.0
44101135172364,1.5811144E7,0.0
44101144937989,1.5796493E7,0.0
44101154703614,1.5792475E7,0.0
44101164469239,1.5781845E7,0.0
44101174234864,1.5772694E7,0.0
44101184000489,1.5766537E7,0.0
44101193796635,1.5767177E7,0.0
44101203562260,1.5754994E7,0.0
44101213327885,1.5747761E7,0.0
44101223093510,1.5736822E7,0.0
44101232859135,1.5728748E7,0.0
44101242624760,1.5719433E7,0.0
44101252390385,1.5707743E7,0.0
44101262156010,1.569746E7,0.0
44101271921635,1.5676291E7,0.0
44101281687260,1.5674043E7,0.0
44101291483406,1.566206E7,0.0
44101301249031,1.5650625E7,0.0
44101311014656,1.5644051E7,0.0
44101320780281,1.5637897E7,0.0
44101330545906,1.5628635E7,0.0
44101340342052,1.5619685E7,0.0
44101350107677,1.5617713E7,0.0
44101359873302,1.561552E7,0.0
44101369638927,1.5605438E7,0.0
44101379404552,1.5607814E7,0.0
44101387800698,1.5599793E7,0.0
44101397566323,1.5605638E7,0.0
44101407331948,1.5613328E7,0.0
44101417097573,1.5603009E7,0.0
44101426863198,1.5600305E7,0.0
44101436628823,1.5592891E7,0.0
44101446394448,1.558869E7,0.0
44101456160073,1.5596488E7,0.0
44101465925698,1.5593238E7,0.0
44101475691323,1.5593019E7,0.0
44101485487469,1.5596032E7,0.0
44101495253094,1.5596836E7,0.0
44101505018719,1.5604506E7,0.0
44101514784344,1.5606442E7,0.0
44101524549969,1.5613456E7,0.0
44101534346114,1.5617769E7,0.0
44101544111739,1.562343E7,0.0
44101553877364,1.562239E7,0.0
44101563642989,1.562217E7,0.0
44101573408614,1.5634097E7,0.0
44101583204760,1.563943E7,0.0
44101592970385,1.5641183E7,0.0
44101602736010,1.565481E7,0.0
44101612501635,1.5655322E7,0.0
44101622267260,1.5656674E7,0.0
44101632063406,1.5658006E7,0.0
44101641829031,1.5655814E7,0.0
44101651594656,1.5648216E7,0.0
44101661360281,1.5651593E7,0.0
44101671125906,1.5655794E7,0.0
44101680922052,1.565395E7,0.0
44101690687677,1.5658571E7,0.0
44101700453302,1.5653805E7,0.0
44101710218927,1.5652801E7,0.0
44101719984552,1.5651449E7,0.0
44101729780698,1.5650189E7,0.0
44101739546323,1.5643431E7,0.0
44101749311948,1.5638554E7,0.0
44101759077573,1.563112E7,0.0
44101768843198,1.5621822E7,0.0
44101778639344,1.5617257E7,0.0
44101788404969,1.5621257E7,0.0
44101798170594,1.5624034E7,0.0
44101807936219,1.5621421E7,0.0
44101817701844,1.5620946E7,0.0
44101827497989,1.5604033E7,0.0
44101837263614,1.5581E7,0.0
44101847029239,1.5548744E7,0.0
44101856794864,1.5472521E7,0.0
44101866560489,1.5412135E7,0.0
44101876356583,1.5425414E7,0.0
44101886122208,1.5477307E7,0.0
44101895887833,1.5520469E7,0.0
44101905653458,1.5537657E7,0.0
44101915419083,1.5568689E7,0.0
44101925215229,1.5633365E7,0.0
44101934980854,1.5704362E7,0.0
44101944746479,1.5790155E7,0.0
44101954512104,1.5882049E7,0.0
44101964277729,1.5942652E7,0.0
44101974073875,1.5995001E7,0.0
44101983839500,1.6060045E7,0.0
44101993605125,1.6130714E7,0.0
44102003370750,1.6227574E7,0.0
44102013136375,1.6314207E7,0.0
44102022932521,1.6393242E7,0.0
44102032698146,1.6459506E7,0.0
44102042463771,1.6514084E7,0.0
44102052229396,1.6566196E7,0.0
44102061995021,1.6589538E7,0.0
44102071791166,1.6612279E7,0.0
44102081526271,1.661564E7,0.0
44102091291896,1.6616533E7,0.0
44102101057521,1.662972E7,0.0
44102110823146,1.6638122E7,0.0
44102120588771,1.6648116E7,0.0
44102130354396,1.6675275E7,0.0
44102140120021,1.6674527E7,0.0
44102149885646,1.6668005E7,0.0
44102159651271,1.6648461E7,0.0
44102169416896,1.6608771E7,0.0
44102179182521,1.6569189E7,0.0
44102188948146,1.6521773E7,0.0
44102198713771,1.6495507E7,0.0
44102208479396,1.6470157E7,0.0
44102218275541,1.6429623E7,0.0
44102228041166,1.6385276E7,0.0
44102237806791,1.6340909E7,0.0
44102247572416,1.6301056E7,0.0
44102257338041,1.6272269E7,0.0
44102267134187,1.6252632E7,0.0
44102276899812,1.6250039E7,0.0
44102286665437,1.6263794E7,0.0
44102296431062,1.6288177E7,0.0
44102306196687,1.6311886E7,0.0
44102315962312,1.6327082E7,0.0
44102325727937,1.6351432E7,0.0
44102335493562,1.6374262E7,0.0
44102345259187,1.6412255E7,0.0
44102355024812,1.6474154E7,0.0
44102365490958,1.657962E7,0.0
44102375256583,1.6732557E7,0.0
44102385022208,1.6864448E7,0.0
44102394787833,1.6997986E7,0.0
44102404553458,1.71221E7,0.0
44102414319083,1.7210248E7,0.0
44102424084708,1.7282068E7,0.0
44102433850333,1.7337428E7,0.0
44102443615958,1.740114E7,0.0
44102453381583,1.7475132E7,0.0
44102463177729,1.7577256E7,0.0
44102472943354,1.7675064E7,0.0
44102482708979,1.77383E7,0.0
44102492474604,1.7775176E7,0.0
44102502270750,1.782234E7,0.0
44102512036375,1.7858468E7,0.0
44102521802000,1.785222E7,0.0
44102531598146,1.778703E7,0.0
44102541363771,1.770429E7,0.0
44102551129396,1.7629856E7,0.0
44102560925541,1.7616104E7,0.0
44102570691166,1.7631172E7,0.0
44102580456791,1.7664892E7,0.0
44102590222416,1.7700088E7,0.0
44102599988041,1.7716672E7,0.0
44102609753666,1.7706482E7,0.0
44102619519291,1.7691268E7,0.0
44102629284916,1.7671978E7,0.0
44102639050541,1.7631264E7,0.0
44102648816166,1.7578516E7,0.0
44102658612312,1.7497272E7,0.0
44102668377937,1.7435716E7,0.0
44102678143562,1.7399952E7,0.0
44102687909187,1.7409158E7,0.0
44102697674812,1.7436336E7,0.0
44102707470958,1.7457634E7,0.0
44102717236583,1.7479316E7,0.0
44102727002208,1.7469708E7,0.0
44102736767833,1.7463828E7,0.0
44102746533458,1.7423058E7,0.0
44102756329604,1.7373376E7,0.0
44102766095229,1.7327054E7,0.0
44102775860854,1.7310798E7,0.0
44102785626479,1.7294342E7,0.0
44102795392104,1.7305192E7,0.0
44102805157729,1.7337248E7,0.0
44102814923354,1.7367604E7,0.0
44102824688979,1.740134E7,0.0
44102834454604,1.7439916E7,0.0
44102844220229,1.7476302E7,0.0
44102853985854,1.7508138E7,0.0
44102863751479,1.752655E7,0.0
44102873517104,1.755128E7,0.0
44102883282729,1.756898E7,0.0
44102893048354,1.7571974E7,0.0
44102902813979,1.7571754E7,0.0
44102912579604,1.7572214E7,0.0
44102922345229,1.7573838E7,0.0
44102932110854,1.7590038E7,0.0
44102941876479,1.7584192E7,0.0
44102951672625,1.7584796E7,0.0
44102961438250,1.7573454E7,0.0
44102971203875,1.7551096E7,0.0
44102981000021,1.7525508E7,0.0
44102990765646,1.7503224E7,0.0
44103000561791,1.746998E7,0.0
44103010327416,1.7420812E7,0.0
44103020093041,1.738282E7,0.0
44103029889135,1.7350324E7,0.0
44103039654760,1.7326562E7,0.0
44103049450906,1.729531E7,0.0
44103059216531,1.726037E7,0.0
44103068982156,1.72135E7,0.0
44103078747781,1.7154228E7,0.0
44103088513406,1.7078244E7,0.0
44103098279031,1.6993692E7,0.0
44103108044656,1.6897964E7,0.0
44103117810281,1.6807224E7,0.0
44103127575906,1.6728408E7,0.0
44103137341531,1.6660059E7,0.0
44103147137677,1.6606414E7,0.0
44103156903302,1.6565737E7,0.0
44103166668927,1.6534889E7,0.0
44103176434552,1.6514267E7,0.0
44103186200177,1.649706E7,0.0
44103195996323,1.6484404E7,0.0
44103205761948,1.6476018E7,0.0
44103215527573,1.6450628E7,0.0
44103225293198,1.6434284E7,0.0
44103235058823,1.6405021E7,0.0
44103244854969,1.6371797E7,0.0
44103254620594,1.6368564E7,0.0
44103264386219,1.6346115E7,0.0
44103274151844,1.6329731E7,0.0
44103283917469,1.6320873E7,0.0
44103293683094,1.6300908E7,0.0
44103303448719,1.6281219E7,0.0
44103313214344,1.6274789E7,0.0
44103322979969,1.6261602E7,0.0
44103332745594,1.6250952E7,0.0
44103342305594,1.6226714E7,0.0
44103352071219,1.6218387E7,0.0
44103361836844,1.619603E7,0.0
44103371602469,1.6201655E7,0.0
44103381368094,1.6194386E7,0.0
44103391133719,1.6189436E7,0.0
44103400899344,1.6193729E7,0.0
44103410664969,1.6201508E7,0.0
44103420430594,1.6196614E7,0.0
44103430196219,1.6188356E7,0.0
44103439992364,1.6170804E7,0.0
44103449757989,1.6144594E7,0.0
44103459523614,1.6110969E7,0.0
44103469289239,1.6075277E7,0.0
44103479085385,1.6043588E7,0.0
44103488851010,1.6015714E7,0.0
44103498616635,1.5983894E7,0.0
44103508412781,1.5953595E7,0.0
44103518178406,1.5934526E7,0.0
44103527944031,1.5907072E7,0.0
44103537740177,1.5886614E7,0.0
44103547505802,1.5875419E7,0.0
44103557271427,1.5860916E7,0.0
44103567037052,1.5853062E7,0.0
44103576802677,1.5845865E7,0.0
44103586568302,1.5841572E7,0.0
44103596333927,1.5825371E7,0.0
44103606099552,1.5815893E7,0.0
44103615865177,1.5812476E7,0.0
44103625630802,1.5813188E7,0.0
44103635426948,1.5794704E7,0.0
44103645192573,1.5783506E7,0.0
44103654958198,1.5780493E7,0.0
44103664723823,1.5770374E7,0.0
44103674489448,1.5755946E7,0.0
44103684285594,1.5756327E7,0.0
44103694051219,1.573693E7,0.0
44103703816844,1.5739523E7,0.0
44103713582469,1.5732493E7,0.0
44103723348094,1.5707743E7,0.0
44103733144239,1.5700601E7,0.0
44103742909864,1.569472E7,0.0
44103752675489,1.5680528E7,0.0
44103762441114,1.5669293E7,0.0
44103772206739,1.5660491E7,0.0
44103782002885,1.5650993E7,0.0
44103791768510,1.564986E7,0.0
44103801534135,1.5639742E7,0.0
44103811299760,1.563048E7,0.0
44103821065385,1.562405E7,0.0
44103830861531,1.5615796E7,0.0
44103840627156,1.5604854E7,0.0
44103850392781,1.5603337E7,0.0
44103860158406,1.5593911E7,0.0
44103869924031,1.5589254E7,0.0
44103879720177,1.5570169E7,0.0
44103889485802,1.5574422E7,0.0
44103899251427,1.5566076E7,0.0
44103909017052,1.5557018E7,0.0
44103918782677,1.5550624E7,0.0
44103928578771,1.555623E7,0.0
44103938344396,1.5556834E7,0.0
44103948110021,1.5554349E7,0.0
44103957875646,1.5553089E7,0.0
44103967671791,1.5556762E7,0.0
44103977437416,1.5549088E7,0.0
44103987203041,1.5542534E7,0.0
44103996999187,1.5544251E7,0.0
44104006764812,1.5543043E7,0.0
44104016530437,1.5546203E7,0.0
44104026326583,1.553939E7,0.0
44104036092208,1.554149E7,0.0
44104045857833,1.5547739E7,0.0
44104055623458,1.5549968E7,0.0
44104065419604,1.5554733E7,0.0
44104075185229,1.5553181E7,0.0
44104084950854,1.5550953E7,0.0
44104094747000,1.5552285E7,0.0
44104104512625,1.5566861E7,0.0
44104114278250,1.5562112E7,0.0
44104124074396,1.5566496E7,0.0
44104133840021,1.5573766E7,0.0
44104143605646,1.5579904E7,0.0
44104153371271,1.5581092E7,0.0
44104163167416,1.5580396E7,0.0
44104172933041,1.558889E7,0.0
44104182698666,1.559762E7,0.0
44104192494812,1.5609931E7,0.0
44104202260437,1.5617585E7,0.0
44104212026062,1.561488E7,0.0
44104221822208,1.5616672E7,0.0
44104231587833,1.5614352E7,0.0
44104241353458,1.5611795E7,0.0
44104251119083,1.5603393E7,0.0
44104260915229,1.5600836E7,0.0
44104270680854,1.5598532E7,0.0
44104280446479,1.5606114E7,0.0
44104290242625,1.5600088E7,0.0
44104300008250,1.5598608E7,0.0
44104309773875,1.5596068E7,0.0
44104319570021,1.5594039E7,0.0
44104329335646,1.5591062E7,0.0
44104339101271,1.5585857E7,0.0
44104348866896,1.5575391E7,0.0
44104358663041,1.5572269E7,0.0
44104368428666,1.557455E7,0.0
44104378194291,1.556752E7,0.0
44104387990437,1.5568452E7,0.0
44104397756062,1.5565256E7,0.0
44104407521687,1.5568341E7,0.0
44104416692000,1.5561419E7,0.0
44104426457625,1.5570953E7,0.0
44104436223250,1.5572361E7,0.0
44104445988875,1.5566953E7,0.0
44104455754500,1.5580032E7,0.0
44104465550594,1.5582864E7,0.0
44104475316219,1.5579539E7,0.0
44104485081844,1.5577035E7,0.0
44104494847469,1.5578607E7,0.0
44104504613094,1.557373E7,0.0
44104514409239,1.5569457E7,0.0
44104524174864,1.5570733E7,0.0
44104533940489,1.5568505E7,0.0
44104543706114,1.55635E7,0.0
44104553471739,1.5562551E7,0.0
44104563237364,1.5555702E7,0.0
44104573002989,1.5552361E7,0.0
44104582768614,1.5545911E7,0.0
44104592534239,1.5542787E7,0.0
44104602299864,1.5546315E7,0.0
44104612096010,1.5536105E7,0.0
44104621861635,1.5531392E7,0.0
44104631627260,1.5523794E7,0.0
44104641392885,1.5522533E7,0.0
44104651158510,1.5521033E7,0.0
44104660954656,1.5506458E7,0.0
44104670720281,1.5500468E7,0.0
44104680485906,1.5499024E7,0.0
44104690251531,1.5496559E7,0.0
44104700017156,1.5494422E7,0.0
44104709813302,1.5487973E7,0.0
44104719578927,1.5477454E7,0.0
44104729344552,1.5471809E7,0.0
44104739110177,1.546578E7,0.0
44104748906323,1.5451972E7,0.0
44104758671948,1.545126E7,0.0
44104768437573,1.5450696E7,0.0
44104778233719,1.5437597E7,0.0
44104787999344,1.5440502E7,0.0
44104797764969,1.5433728E7,0.0
44104807561114,1.5437617E7,0.0
44104817326739,1.5442002E7,0.0
44104827092364,1.54359E7,0.0
44104836857989,1.5431936E7,0.0
44104846623614,1.5430347E7,0.0
44104856389239,1.5421873E7,0.0
44104866154864,1.541696E7,0.0
44104875920489,1.5416283E7,0.0
44104885686114,1.5414275E7,0.0
44104895451739,1.5403185E7,0.0
44104905247885,1.540262E7,0.0
44104915013510,1.5399643E7,0.0
44104924779135,1.540138E7,0.0
44104934544760,1.5399204E7,0.0
44104944310385,1.5389505E7,0.0
44104954076010,1.5384648E7,0.0
44104963841635,1.5385324E7,0.0
44104973607260,1.5372429E7,0.0
44104983372885,1.5372429E7,0.0
44104993138510,1.5362875E7,0.0
44105002934656,1.5361706E7,0.0
44105012700281,1.535933E7,0.0
44105022465906,1.5350216E7,0.0
44105032231531,1.5349047E7,0.0
44105041997156,1.5344702E7,0.0
44105051762781,1.5329102E7,0.0
44105061528406,1.5330454E7,0.0
44105071294031,1.5331367E7,0.0
44105081059656,1.5324537E7,0.0
44105090825281,1.5332483E7,0.0
44105100621427,1.5331695E7,0.0
44105110387052,1.5330527E7,0.0
44105120152677,1.5332463E7,0.0
44105129918302,1.5333668E7,0.0
44105139714448,1.5332391E7,0.0
44105149480073,1.5333888E7,0.0
44105159245698,1.5342565E7,0.0
44105169041844,1.5342381E7,0.0
44105178807469,1.5338581E7,0.0
44105188573094,1.5336188E7,0.0
44105198369239,1.534996E7,0.0
44105208134864,1.5352556E7,0.0
44105217900489,1.535334E7,0.0
44105227666114,1.5364555E7,0.0
44105237431739,1.5365815E7,0.0
44105247227885,1.5380539E7,0.0
44105256993510,1.5373525E7,0.0
44105266759135,1.5373945E7,0.0
44105276524760,1.5375294E7,0.0
44105286290385,1.5375514E7,0.0
44105296086531,1.5372445E7,0.0
44105305852156,1.5369997E7,0.0
44105315617781,1.5366455E7,0.0
44105325383406,1.5363787E7,0.0
44105335149031,1.5358234E7,0.0
44105344945125,1.535935E7,0.0
44105354710750,1.5356793E7,0.0
44105364476375,1.5352008E7,0.0
44105374242000,1.5352556E7,0.0
44105384007625,1.5355149E7,0.0
44105393923406,1.5350656E7,0.0
44105403689031,1.5349888E7,0.0
44105413454656,1.5344262E7,0.0
44105423220281,1.5346619E7,0.0
44105432985906,1.5336592E7,0.0
44105442782052,1.5336792E7,0.0
44105452547677,1.5324517E7,0.0
44105462313302,1.53344E7,0.0
44105472078927,1.5330527E7,0.0
44105481844552,1.5334363E7,0.0
44105491640698,1.5340885E7,0.0
44105501406323,1.5349871E7,0.0
44105511171948,1.5342198E7,0.0
44105520937573,1.5348535E7,0.0
44105530703198,1.5351184E7,0.0
44105540468823,1.5353176E7,0.0
44105550234448,1.5360702E7,0.0
44105560000073,1.5368592E7,0.0
44105569765698,1.5363879E7,0.0
44105579531323,1.5367936E7,0.0
44105589327469,1.5365395E7,0.0
44105599093094,1.5369412E7,0.0
44105608858719,1.5373613E7,0.0
44105618624344,1.5370784E7,0.0
44105628389969,1.5381359E7,0.0
44105638186114,1.5384136E7,0.0
44105647951739,1.5385104E7,0.0
44105657717364,1.5382091E7,0.0
44105667482989,1.5383771E7,0.0
44105677248614,1.5385268E7,0.0
44105687044760,1.5380319E7,0.0
44105696810385,1.5385616E7,0.0
44105706576010,1.5388465E7,0.0
44105716341635,1.5381579E7,0.0
44105726137781,1.5384264E7,0.0
44105735903406,1.5379423E7,0.0
44105745669031,1.5372481E7,0.0
44105755465177,1.5373597E7,0.0
44105765230802,1.5370089E7,0.0
44105774996427,1.5375002E7,0.0
44105784792573,1.5372737E7,0.0
44105794527677,1.5364243E7,0.0
44105804293302,1.5354601E7,0.0
44105814058927,1.5350967E7,0.0
44105823824552,1.5340717E7,0.0
44105833590177,1.5333576E7,0.0
44105843355802,1.5338436E7,0.0
44105853121427,1.5336848E7,0.0
44105862887052,1.5329066E7,0.0
44105872652677,1.5344318E7,0.0
44105882418302,1.5334272E7,0.0
44105892183927,1.533608E7,0.0
44105901949552,1.5340117E7,0.0
44105911715177,1.5333576E7,0.0
44105921480802,1.5330655E7,0.0
44105931276948,1.5332443E7,0.0
44105941042573,1.5324133E7,0.0
44105950808198,1.5323733E7,0.0
44105960573823,1.5321193E7,0.0
44105970339448,1.5307821E7,0.0
44105980135594,1.5301888E7,0.0
44105989901219,1.530921E7,0.0
44105999666844,1.5311094E7,0.0
44106009432469,1.5306945E7,0.0
44106019198094,1.5306105E7,0.0
44106028994239,1.5305412E7,0.0
44106038759864,1.5313558E7,0.0
44106048525489,1.5311166E7,0.0
44106058291114,1.5306709E7,0.0
44106068056739,1.5302088E7,0.0
44106077852885,1.5304864E7,0.0
44106087618510,1.5307529E7,0.0
44106097384135,1.5300443E7,0.0
44106107149760,1.5299203E7,0.0
44106116945906,1.530322E7,0.0
44106126711531,1.5303368E7,0.0
44106136477156,1.5303076E7,0.0
44106146273302,1.5299367E7,0.0
44106156038927,1.5298855E7,0.0
44106165804552,1.53026E7,0.0
44106175600698,1.5291129E7,0.0
44106185366323,1.5292882E7,0.0
44106195131948,1.5291733E7,0.0
44106204928041,1.529491E7,0.0
44106214693666,1.5288828E7,0.0
44106224489812,1.5291493E7,0.0
44106234255437,1.528616E7,0.0
44106244021062,1.5285392E7,0.0
44106253817208,1.5290837E7,0.0
44106263582833,1.5289449E7,0.0
44106273378979,1.528384E7,0.0
44106283144604,1.5286564E7,0.0
44106292910229,1.5283659E7,0.0
44106302675854,1.5282671E7,0.0
44106312441479,1.5283475E7,0.0
44106322237625,1.5282107E7,0.0
44106332003250,1.5282363E7,0.0
44106341768875,1.5282527E7,0.0
44106351534500,1.5282471E7,0.0
44106361300125,1.5281814E7,0.0
44106372696271,1.5272644E7,0.0
44106382461896,1.526848E7,0.0
44106392227521,1.5263038E7,0.0
44106401993146,1.5259437E7,0.0
44106411758771,1.524837E7,0.0
44106421554916,1.5251748E7,0.0
44106431320541,1.5234651E7,0.0
44106441086166,1.5234999E7,0.0
44106450851791,1.5225301E7,0.0
44106460617416,1.5226725E7,0.0
44106470413562,1.5218888E7,0.0
44106480179187,1.5212458E7,0.0
44106489944812,1.5211986E7,0.0
44106499710437,1.5199711E7,0.0
44106509476062,1.5197282E7,0.0
44106519241687,1.5196406E7,0.0
44106529007312,1.5192625E7,0.0
44106538772937,1.5183839E7,0.0
44106548538562,1.5183891E7,0.0
44106558304187,1.5183271E7,0.0
44106568100333,1.517781E7,0.0
44106577835437,1.5176405E7,0.0
44106587601062,1.5170323E7,0.0
44106597366687,1.5168659E7,0.0
44106607132312,1.5167254E7,0.0
44106616897937,1.5164402E7,0.0
44106626663562,1.5166503E7,0.0
44106636429187,1.5165006E7,0.0
44106646194812,1.5160037E7,0.0
44106655960437,1.5162358E7,0.0
44106665726062,1.5149774E7,0.0
44106675491687,1.5144201E7,0.0
44106685287833,1.5146778E7,0.0
44106695053458,1.5140201E7,0.0
44106704849604,1.5139216E7,0.0
44106714615229,1.5129882E7,0.0
44106724411375,1.5130082E7,0.0
44106734177000,1.5129042E7,0.0
44106743973146,1.513021E7,0.0
44106753738771,1.5126757E7,0.0
44106763534916,1.5125609E7,0.0
44106773300541,1.5117462E7,0.0
44106783066166,1.5125645E7,0.0
44106792831791,1.5122448E7,0.0
44106802597416,1.5122248E7,0.0
44106812363041,1.5112037E7,0.0
44106822128666,1.5114066E7,0.0
44106831894291,1.5106264E7,0.0
44106841659916,1.5108988E7,0.0
44106851425541,1.5111561E7,0.0
44106861191166,1.5111013E7,0.0
44106870956791,1.5105716E7,0.0
44106880722416,1.5101078E7,0.0
44106890488041,1.5099782E7,0.0
44106900253666,1.5095489E7,0.0
44106910049812,1.5101115E7,0.0
44106919815437,1.5100146E7,0.0
44106929581062,1.5096602E7,0.0
44106939346687,1.5096421E7,0.0
44106949112312,1.5100658E7,0.0
44106958908458,1.5092201E7,0.0
44106968674083,1.5092329E7,0.0
44106978439708,1.5093405E7,0.0
44106988205333,1.5087635E7,0.0
44106997970958,1.5083414E7,0.0
44107007736583,1.5081386E7,0.0
44107017502208,1.5081846E7,0.0
44107027267833,1.5083178E7,0.0
44107037033458,1.5084091E7,0.0
44107046799083,1.5076437E7,0.0
44107056564708,1.507346E7,0.0
44107066330333,1.5068747E7,0.0
44107076095958,1.5068987E7,0.0
44107085861583,1.5067214E7,0.0
44107095627208,1.5072656E7,0.0
44107105392833,1.506409E7,0.0
44107115158458,1.5056272E7,0.0
44107124924083,1.5058484E7,0.0
44107134689708,1.5054227E7,0.0
44107144455333,1.5052747E7,0.0
44107154251479,1.5044585E7,0.0
44107164017104,1.5037787E7,0.0
44107173782729,1.5035414E7,0.0
44107183548354,1.5025624E7,0.0
44107193313979,1.5022483E7,0.0
44107203079604,1.5012197E7,0.0
44107212845229,1.500754E7,0.0
44107222610854,1.5005988E7,0.0
44107232376479,1.5004891E7,0.0
44107242142104,1.4997257E7,0.0
44107251907729,1.4986774E7,0.0
44107261673354,1.4987431E7,0.0
44107271438979,1.4974043E7,0.0
44107281204604,1.4969787E7,0.0
44107290970229,1.4971851E7,0.0
44107300735854,1.4965494E7,0.0
44107310501479,1.4968254E7,0.0
44107320267104,1.4961952E7,0.0
44107330032729,1.495848E7,0.0
44107339798354,1.4946789E7,0.0
44107349594448,1.494586E7,0.0
44107359360073,1.4946041E7,0.0
44107369125698,1.4940819E7,0.0
44107378891323,1.4940507E7,0.0
44107388656948,1.4929237E7,0.0
44107398422573,1.4928525E7,0.0
44107408188198,1.4924251E7,0.0
44107417953823,1.4930845E7,0.0
44107427719448,1.4921238E7,0.0
44107437485073,1.4922295E7,0.0
44107447805073,1.4918974E7,0.0
44107457570698,1.4915685E7,0.0
44107467336323,1.4918114E7,0.0
44107477101948,1.4912105E7,0.0
44107486867573,1.491046E7,0.0
44107496633198,1.4902058E7,0.0
44107506398823,1.489658E7,0.0
44107516164448,1.48928E7,0.0
44107525930073,1.4888287E7,0.0
44107535695698,1.4886078E7,0.0
44107545491844,1.4894916E7,0.0
44107555257469,1.4885858E7,0.0
44107565023094,1.4882881E7,0.0
44107574788719,1.4877692E7,0.0
44107584554344,1.4879409E7,0.0
44107594319969,1.4876724E7,0.0
44107604085594,1.4872963E7,0.0
44107613851219,1.4872543E7,0.0
44107623616844,1.4877804E7,0.0
44107633382469,1.4876908E7,0.0
44107643178614,1.4873271E7,0.0
44107652944239,1.4877948E7,0.0
44107662709864,1.4875264E7,0.0
44107672475489,1.4874863E7,0.0
44107682241114,1.4867501E7,0.0
44107692006739,1.4869838E7,0.0
44107701772364,1.4861308E7,0.0
44107711537989,1.4854971E7,0.0
44107721303614,1.4859664E7,0.0
44107731069239,1.4854442E7,0.0
44107740865385,1.4857071E7,0.0
44107750631010,1.4857199E7,0.0
44107760396635,1.4863281E7,0.0
44107770162260,1.4857051E7,0.0
44107779927885,1.4855739E7,0.0
44107789724031,1.485391E7,0.0
44107799489656,1.4854862E7,0.0
44107809255281,1.485203E7,0.0
44107819020906,1.4849801E7,0.0
44107828786531,1.4847849E7,0.0
44107838582677,1.485541E7,0.0
44107848348302,1.4849161E7,0.0
44107858113927,1.4846825E7,0.0
44107867879552,1.4843408E7,0.0
44107877645177,1.483477E7,0.0
44107887410802,1.4828504E7,0.0
44107897176427,1.4821874E7,0.0
44107906942052,1.4816213E7,0.0
44107916707677,1.4810476E7,0.0
44107926473302,1.4806294E7,0.0
44107936238927,1.4794348E7,0.0
44107946004552,1.4787242E7,0.0
44107955770177,1.4785581E7,0.0
44107965535802,1.4781088E7,0.0
44107975301427,1.4774547E7,0.0
44107985097573,1.4767773E7,0.0
44107994863198,1.4750621E7,0.0
44108004628823,1.4761232E7,0.0
44108014394448,1.475157E7,0.0
44108024160073,1.4746384E7,0.0
44108033956219,1.4737434E7,0.0
44108043721844,1.473831E7,0.0
44108053487469,1.4733325E7,0.0
44108063253094,1.4735186E7,0.0
44108073018719,1.4725523E7,0.0
44108082784344,1.4723423E7,0.0
44108092549969,1.4714676E7,0.0
44108102315594,1.4708246E7,0.0
44108112081219,1.4714492E7,0.0
44108121846844,1.4711151E7,0.0
44108131642989,1.4707167E7,0.0
44108141378094,1.4701249E7,0.0
44108151143719,1.4704994E7,0.0
44108160909344,1.4704082E7,0.0
44108170674969,1.4691131E7,0.0
44108180440594,1.4690054E7,0.0
44108190175698,1.4690546E7,0.0
44108199941323,1.4684957E7,0.0
44108209706948,1.4686746E7,0.0
44108219472573,1.4670546E7,0.0
44108229238198,1.4665852E7,0.0
44108239003823,1.467029E7,0.0
44108248769448,1.4668465E7,0.0
44108258565594,1.4662747E7,0.0
44108268331219,1.4663588E7,0.0
44108278127364,1.4662728E7,0.0
44108287892989,1.4658343E7,0.0
44108297658614,1.4657414E7,0.0
44108307454760,1.4658254E7,0.0
44108317220385,1.4649396E7,0.0
44108327016531,1.464808E7,0.0
44108336782156,1.4645047E7,0.0
44108346547781,1.4643987E7,0.0
44108356313406,1.4638818E7,0.0
44108366109552,1.4641631E7,0.0
44108375875177,1.4645723E7,0.0
44108385640802,1.4644043E7,0.0
44108395436948,1.4634217E7,0.0
44108405202573,1.4633248E7,0.0
44108414968198,1.4635237E7,0.0
44108425089344,1.4634893E7,0.0
44108434854969,1.4634473E7,0.0
44108444620594,1.4630656E7,0.0
44108454386219,1.4633557E7,0.0
44108464151844,1.4630784E7,0.0
44108473947989,1.4631676E7,0.0
44108483713614,1.4628992E7,0.0
44108493479239,1.4628772E7,0.0
44108503244864,1.4633376E7,0.0
44108513010489,1.4628683E7,0.0
44108522806583,1.4625322E7,0.0
44108532572208,1.4622106E7,0.0
44108542337833,1.462289E7,0.0
44108552103458,1.4620954E7,0.0
44108561869083,1.4628719E7,0.0
44108571634708,1.4621741E7,0.0
44108581400333,1.4618417E7,0.0
44108591165958,1.4627347E7,0.0
44108600931583,1.4617888E7,0.0
44108610697208,1.461776E7,0.0
44108620493354,1.4619185E7,0.0
44108630258979,1.4614344E7,0.0
44108640024604,1.4618253E7,0.0
44108649790229,1.4620061E7,0.0
44108659555854,1.4610031E7,0.0
44108669352000,1.4615604E7,0.0
44108679117625,1.4614856E7,0.0
44108688883250,1.4609995E7,0.0
44108698648875,1.4603145E7,0.0
44108708414500,1.4602781E7,0.0
44108718210646,1.4595767E7,0.0
44108727976271,1.4586417E7,0.0
44108737741896,1.4585373E7,0.0
44108747507521,1.4582744E7,0.0
44108757273146,1.4568937E7,0.0
44108767038771,1.457299E7,0.0
44108776804396,1.4558066E7,0.0
44108786570021,1.4553357E7,0.0
44108796335646,1.4549264E7,0.0
44108806101271,1.4540278E7,0.0
44108815897416,1.4534084E7,0.0
44108825663041,1.4532368E7,0.0
44108835428666,1.4522778E7,0.0
44108845194291,1.4521373E7,0.0
44108854990437,1.4523218E7,0.0
44108864756062,1.4522614E7,0.0
44108874521687,1.4512643E7,0.0
44108884317833,1.4510742E7,0.0
44108894083458,1.4504861E7,0.0
44108903849083,1.4503985E7,0.0
44108913645229,1.4501044E7,0.0
44108923410854,1.4495891E7,0.0
44108933176479,1.4490925E7,0.0
44108942942104,1.4499948E7,0.0
44108952707729,1.4497939E7,0.0
44108962473354,1.449728E7,0.0
44108972238979,1.4487033E7,0.0
44108982004604,1.4496275E7,0.0
44108991770229,1.449213E7,0.0
44109001535854,1.449107E7,0.0
44109011332000,1.4481647E7,0.0
44109021097625,1.4479179E7,0.0
44109030863250,1.4478834E7,0.0
44109040628875,1.4484128E7,0.0
44109050394500,1.4470121E7,0.0
44109060190646,1.4470048E7,0.0
44109069956271,1.4472989E7,0.0
44109079721896,1.4468256E7,0.0
44109089487521,1.4458594E7,0.0
44109099253146,1.4462431E7,0.0
44109109049291,1.4457097E7,0.0
44109118814916,1.4457554E7,0.0
44109128580541,1.445887E7,0.0
44109138346166,1.4456841E7,0.0
44109148111791,1.445056E7,0.0
44109157877416,1.4457865E7,0.0
44109167643041,1.4448987E7,0.0
44109177408666,1.444623E7,0.0
44109187174291,1.4440457E7,0.0
44109196939916,1.4440897E7,0.0
44109206736062,1.4438849E7,0.0
44109216501687,1.4434924E7,0.0
44109226267312,1.4441005E7,0.0
44109236032937,1.4442302E7,0.0
44109245798562,1.4425481E7,0.0
44109255594708,1.443516E7,0.0
44109265360333,1.443494E7,0.0
44109275125958,1.4424858E7,0.0
44109284891583,1.4434412E7,0.0
44109294657208,1.4432311E7,0.0
44109304453354,1.4436237E7,0.0
44109314218979,1.4435088E7,0.0
44109323984604,1.4430447E7,0.0
44109333780750,1.4422705E7,0.0
44109343546375,1.4431616E7,0.0
44109353342521,1.4437881E7,0.0
44109363108146,1.4436384E7,0.0
44109372873771,1.4436201E7,0.0
44109382669864,1.4426026E7,0.0
44109392435489,1.4423233E7,0.0
44109400096896,1.4423745E7,0.0
44109409862521,1.4425534E7,0.0
44109419628146,1.4425974E7,0.0
44109429393771,1.4421097E7,0.0
44109439159396,1.4416219E7,0.0
44109448925021,1.4424421E7,0.0
44109458690646,1.4419012E7,0.0
44109468456271,1.4424914E7,0.0
44109478221896,1.4419508E7,0.0
44109487987521,1.4425645E7,0.0
44109497753146,1.4424986E7,0.0
44109507518771,1.4417516E7,0.0
44109517284396,1.4422721E7,0.0
44109527050021,1.4416968E7,0.0
44109536846166,1.4418592E7,0.0
44109546611791,1.4415616E7,0.0
44109556377416,1.4424293E7,0.0
44109566173562,1.4415671E7,0.0
44109575939187,1.4422741E7,0.0
44109585704812,1.4418924E7,0.0
44109595500958,1.4423049E7,0.0
44109605266583,1.4426886E7,0.0
44109615032208,1.441642E7,0.0
44109624797833,1.442515E7,0.0
44109634563458,1.4416111E7,0.0
44109644329083,1.4411654E7,0.0
44109654094708,1.4407489E7,0.0
44109663860333,1.4397371E7,0.0
44109673625958,1.4391197E7,0.0
44109683391583,1.4389169E7,0.0
44109693187729,1.4387524E7,0.0
44109702953354,1.4379943E7,0.0
44109712718979,1.4373497E7,0.0
44109722484604,1.4367671E7,0.0
44109732250229,1.4358957E7,0.0
44109742015854,1.4359105E7,0.0
44109751781479,1.4351304E7,0.0
44109761547104,1.4353388E7,0.0
44109771312729,1.4346719E7,0.0
44109781078354,1.4346902E7,0.0
44109790874500,1.4345714E7,0.0
44109800609604,1.4343341E7,0.0
44109810375229,1.4341461E7,0.0
44109820140854,1.4337404E7,0.0
44109829906479,1.4336508E7,0.0
44109839672104,1.4337788E7,0.0
44109849437729,1.4333367E7,0.0
44109859203354,1.432999E7,0.0
44109868968979,1.433019E7,0.0
44109878734604,1.4330791E7,0.0
44109888500229,1.4328654E7,0.0
44109898265854,1.4326025E7,0.0
44109908031479,1.4326081E7,0.0
44109917797104,1.4331759E7,0.0
44109927562729,1.4317459E7,0.0
44109937358875,1.4322756E7,0.0
44109947124500,1.4315375E7,0.0
44109956890125,1.4322008E7,0.0
44109966655750,1.4310482E7,0.0
44109976421375,1.4310918E7,0.0
44109986217521,1.4306829E7,0.0
44109995983146,1.4303524E7,0.0
44110005748771,1.4300071E7,0.0
44110015514396,1.429607E7,0.0
44110025280021,1.4296034E7,0.0
44110035045646,1.4296982E7,0.0
44110044811271,1.4299575E7,0.0
44110054576896,1.4299615E7,0.0
44110064342521,1.4294882E7,0.0
44110074108146,1.4290881E7,0.0
44110083904291,1.4288781E7,0.0
44110093669916,1.4286007E7,0.0
44110103435541,1.4291557E7,0.0
44110113201166,1.4283211E7,0.0
44110122966791,1.4288272E7,0.0
44110132732416,1.4288016E7,0.0
44110142498041,1.4284964E7,0.0
44110152263666,1.4291633E7,0.0
44110162029291,1.4289952E7,0.0
44110171794916,1.4288528E7,0.0
44110181560541,1.4290589E7,0.0
44110191295646,1.4291613E7,0.0
44110201061271,1.42886E7,0.0
44110210826896,1.4283467E7,0.0
44110220592521,1.4287284E7,0.0
44110230358146,1.4289184E7,0.0
44110240123771,1.428858E7,0.0
44110249889396,1.4289476E7,0.0
44110259655021,1.4288233E7,0.0
44110269420646,1.4287996E7,0.0
44110279186271,1.4286096E7,0.0
44110288921375,1.4287268E7,0.0
44110298687000,1.4286116E7,0.0
44110308452625,1.4286936E7,0.0
44110318218250,1.4288436E7,0.0
44110327983875,1.4289404E7,0.0
44110337749500,1.4300123E7,0.0
44110347515125,1.429649E7,0.0
44110357280750,1.4294482E7,0.0
44110367046375,1.4303028E7,0.0
44110377211896,1.4303852E7,0.0
44110386947000,1.4304564E7,0.0
44110396712625,1.4305148E7,0.0
44110406478250,1.43044E7,0.0
44110416243875,1.43044E7,0.0
44110426009500,1.4303028E7,0.0
44110435775125,1.4302572E7,0.0
44110445540750,1.4300379E7,0.0
44110455306375,1.4303796E7,0.0
44110465072000,1.4298646E7,0.0
44110474837625,1.4299943E7,0.0
44110484572729,1.4299431E7,0.0
44110494338354,1.4301843E7,0.0
44110504103979,1.4295922E7,0.0
44110513869604,1.4305348E7,0.0
44110523635229,1.4305257E7,0.0
44110533400854,1.4303668E7,0.0
44110543166479,1.4302956E7,0.0
44110552932104,1.4303576E7,0.0
44110562697729,1.4299303E7,0.0
44110572463354,1.4292417E7,0.0
44110582198458,1.4297695E7,0.0
44110591964083,1.4283267E7,0.0
44110601729708,1.4280106E7,0.0
44110611495333,1.427689E7,0.0
44110621260958,1.4276417E7,0.0
44110630996062,1.4275905E7,0.0
44110640761687,1.4268488E7,0.0
44110650527312,1.426257E7,0.0
44110660292937,1.4253292E7,0.0
44110670058562,1.4256452E7,0.0
44110679793666,1.4252015E7,0.0
44110689559291,1.4257329E7,0.0
44110699324916,1.4251027E7,0.0
44110709090541,1.4245714E7,0.0
44110718856166,1.4239376E7,0.0
44110728591271,1.4239172E7,0.0
44110738356896,1.4235339E7,0.0
44110748122521,1.4233895E7,0.0
44110757888146,1.4228854E7,0.0
44110767653771,1.4227885E7,0.0
44110777419396,1.4228578E7,0.0
44110787185021,1.4228453E7,0.0
44110796950646,1.423101E7,0.0
44110806716271,1.4225385E7,0.0
44110816481896,1.4229494E7,0.0
44110826247521,1.4224324E7,0.0
44110836013146,1.4228141E7,0.0
44110845778771,1.4217275E7,0.0
44110855544396,1.4221384E7,0.0
44110865310021,1.4213894E7,0.0
44110875075646,1.4213822E7,0.0
44110884841271,1.4211117E7,0.0
44110894606896,1.4210681E7,0.0
44110904403041,1.4209601E7,0.0
44110914168666,1.421329E7,0.0
44110923934291,1.4211009E7,0.0
44110933730437,1.4209309E7,0.0
44110943496062,1.4203867E7,0.0
44110953261687,1.4210005E7,0.0
44110963057833,1.4207957E7,0.0
44110972823458,1.4206608E7,0.0
44110982589083,1.4203208E7,0.0
44110992354708,1.420582E7,0.0
44111002120333,1.4204888E7,0.0
44111011885958,1.420372E7,0.0
44111021651583,1.4202039E7,0.0
44111031417208,1.4207776E7,0.0
44111041182833,1.4196818E7,0.0
44111050948458,1.4209713E7,0.0
44111060714083,1.4200963E7,0.0
44111070479708,1.4208669E7,0.0
44111080245333,1.420562E7,0.0
44111090010958,1.4204724E7,0.0
44111099776583,1.4203995E7,0.0
44111109542208,1.420522E7,0.0
44111119307833,1.4201747E7,0.0
44111129073458,1.4206808E7,0.0
44111138839083,1.420582E7,0.0
44111148604708,1.4200615E7,0.0
44111158370333,1.4206569E7,0.0
44111168105437,1.4207081E7,0.0
44111177871062,1.4199811E7,0.0
44111187636687,1.4207849E7,0.0
44111197402312,1.4207428E7,0.0
44111207167937,1.4205328E7,0.0
44111216933562,1.4200487E7,0.0
44111226699187,1.4205308E7,0.0
44111236464812,1.4202571E7,0.0
44111246230437,1.4205892E7,0.0
44111255996062,1.4205712E7,0.0
44111265761687,1.4206861E7,0.0
44111275527312,1.4206332E7,0.0
44111285292937,1.4210093E7,0.0
44111295058562,1.4205856E7,0.0
44111304824187,1.4205272E7,0.0
44111314589812,1.4211154E7,0.0
44111324355437,1.4207665E7,0.0
44111334121062,1.4208305E7,0.0
44111343886687,1.4212962E7,0.0
44111353652312,1.4212834E7,0.0
44111363387416,1.4216103E7,0.0
44111373153041,1.4219831E7,0.0
44111382918666,1.4211629E7,0.0
44111392684291,1.4219008E7,0.0
44111402449916,1.4220596E7,0.0
44111412185021,1.4210642E7,0.0
44111421950646,1.4209401E7,0.0
44111431716271,1.4219539E7,0.0
44111441481896,1.4218827E7,0.0
44111452647573,1.421952E7,0.0
44111462382729,1.4220964E7,0.0
44111472148354,1.4221512E7,0.0
44111481913979,1.4218259E7,0.0
44111491679604,1.4224177E7,0.0
44111501445229,1.422332E7,0.0
44111511210854,1.422268E7,0.0
44111520976479,1.4226241E7,0.0
44111530742104,1.4227101E7,0.0
44111540507729,1.4222752E7,0.0
44111550273354,1.4219099E7,0.0
44111560038979,1.4218479E7,0.0
44111569804604,1.4212834E7,0.0
44111579570229,1.4208689E7,0.0
44111589335854,1.4202167E7,0.0
44111599101479,1.4203227E7,0.0
44111608867104,1.4194898E7,0.0
44111618632729,1.4193417E7,0.0
44111628398354,1.4191849E7,0.0
44111638163979,1.4186368E7,0.0
44111647960073,1.4178625E7,0.0
44111657725698,1.4169363E7,0.0
44111667491323,1.4177545E7,0.0
44111677256948,1.4177437E7,0.0
44111687022573,1.4168395E7,0.0
44111696788198,1.4166495E7,0.0
44111706553823,1.416405E7,0.0
44111716319448,1.4163666E7,0.0
44111726085073,1.4159081E7,0.0
44111735850698,1.4161069E7,0.0
44111745616323,1.4158349E7,0.0
44111755381948,1.415594E7,0.0
44111765147573,1.415594E7,0.0
44111774913198,1.4151791E7,0.0
44111784678823,1.4151611E7,0.0
44111794444448,1.4147042E7,0.0
44111804210073,1.4150367E7,0.0
44111813975698,1.4147334E7,0.0
44111823741323,1.4150859E7,0.0
44111833506948,1.4148542E7,0.0
44111843272573,1.4149234E7,0.0
44111853038198,1.4142641E7,0.0
44111862803823,1.4147846E7,0.0
44111872569448,1.4144157E7,0.0
44111882335073,1.4150002E7,0.0
44111892100698,1.4145273E7,0.0
44111901866323,1.4141929E7,0.0
44111911631948,1.4136431E7,0.0
44111921397573,1.4139772E7,0.0
44111931163198,1.4143005E7,0.0
44111940928823,1.4137947E7,0.0
44111950663979,1.4141929E7,0.0
44111960429604,1.4143025E7,0.0
44111970195229,1.4136359E7,0.0
44111979960854,1.4134751E7,0.0
44111989726479,1.4138952E7,0.0
44111999492104,1.4142293E7,0.0
44112009257729,1.4131318E7,0.0
44112019023354,1.4139536E7,0.0
44112028788979,1.4133471E7,0.0
44112038554604,1.4133654E7,0.0
44112048289708,1.4129729E7,0.0
44112058055333,1.4131662E7,0.0
44112067820958,1.4129289E7,0.0
44112077586583,1.4129234E7,0.0
44112087352208,1.4138256E7,0.0
44112097087312,1.4139264E7,0.0
44112106852937,1.4134111E7,0.0
44112116618562,1.4135371E7,0.0
44112126384187,1.4131754E7,0.0
44112136149812,1.413435E7,0.0
44112145884916,1.4138952E7,0.0
44112155650541,1.4133947E7,0.0
44112165416166,1.4138988E7,0.0
44112175181791,1.413327E7,0.0
44112184947416,1.4129053E7,0.0
44112194713041,1.4127225E7,0.0
44112204478666,1.4129729E7,0.0
44112214244291,1.4131518E7,0.0
44112224009916,1.4129106E7,0.0
44112233775541,1.4129746E7,0.0
44112243541166,1.4143081E7,0.0
44112253306791,1.4135243E7,0.0
44112263072416,1.4136615E7,0.0
44112272838041,1.4143297E7,0.0
44112282603666,1.4135243E7,0.0
44112292369291,1.4138532E7,0.0
44112302134916,1.4135243E7,0.0
44112311900541,1.4137199E7,0.0
44112321666166,1.4139352E7,0.0
44112331431791,1.4136595E7,0.0
44112341197416,1.4133343E7,0.0
44112350963041,1.4135151E7,0.0
44112360728666,1.4135863E7,0.0
44112370494291,1.4136887E7,0.0
44112380259916,1.4132795E7,0.0
44112390025541,1.413139E7,0.0
44112399791166,1.4130898E7,0.0
44112409556791,1.4137928E7,0.0
44112419322416,1.4136155E7,0.0
44112429118562,1.413307E7,0.0
44112438884187,1.413141E7,0.0
44112448649812,1.413225E7,0.0
44112458445958,1.4131866E7,0.0
44112468211583,1.4137892E7,0.0
44112478007729,1.4131062E7,0.0
44112487773354,1.4132886E7,0.0
44112497538979,1.4133635E7,0.0
44112507335073,1.4126897E7,0.0
44112517100698,1.4122384E7,0.0
44112527673562,1.4121747E7,0.0
44112537439187,1.4117343E7,0.0
44112547204812,1.4110276E7,0.0
44112556970437,1.4105472E7,0.0
44112566736062,1.4099918E7,0.0
44112576501687,1.4104083E7,0.0
44112586267312,1.4099518E7,0.0
44112596032937,1.4096794E7,0.0
44112605798562,1.409855E7,0.0
44112615564187,1.4088904E7,0.0
44112625360333,1.408253E7,0.0
44112635125958,1.408085E7,0.0
44112644891583,1.4078165E7,0.0
44112654657208,1.4082238E7,0.0
44112664422833,1.4078165E7,0.0
44112674218979,1.4071827E7,0.0
44112683984604,1.4078457E7,0.0
44112693750229,1.4071716E7,0.0
44112703515854,1.4066966E7,0.0
44112713281479,1.4068283E7,0.0
44112723077625,1.4062473E7,0.0
44112732843250,1.4060064E7,0.0
44112742608875,1.4063937E7,0.0
44112752374500,1.405504E7,0.0
44112762140125,1.4052667E7,0.0
44112771905750,1.4059352E7,0.0
44112781671375,1.4058476E7,0.0
44112791437000,1.4051715E7,0.0
44112801202625,1.4053543E7,0.0
44112810968250,1.4045633E7,0.0
44112820764396,1.4053231E7,0.0
44112830530021,1.4047753E7,0.0
44112840295646,1.4044665E7,0.0
44112850061271,1.4044905E7,0.0
44112859826896,1.4040556E7,0.0
44112869592521,1.4038327E7,0.0
44112879358146,1.4034802E7,0.0
44112889123771,1.4036063E7,0.0
44112898889396,1.4031497E7,0.0
44112908655021,1.4034146E7,0.0
44112918451166,1.4031369E7,0.0
44112928216791,1.4028245E7,0.0
44112937982416,1.4030089E7,0.0
44112947748041,1.4028137E7,0.0
44112957513666,1.4022363E7,0.0
44112967279291,1.4027021E7,0.0
44112977044916,1.4028849E7,0.0
44112986810541,1.4020027E7,0.0
44112996576166,1.4025084E7,0.0
44113006341791,1.4022984E7,0.0
44113016137937,1.4026509E7,0.0
44113025903562,1.4016354E7,0.0
44113035669187,1.4020355E7,0.0
44113045434812,1.4014985E7,0.0
44113055200437,1.4021231E7,0.0
44113064966062,1.4020939E7,0.0
44113074731687,1.4015241E7,0.0
44113084497312,1.4017286E7,0.0
44113094262937,1.4015386E7,0.0
44113104028562,1.4018986E7,0.0
44113113824708,1.4014785E7,0.0
44113123590333,1.4012265E7,0.0
44113133355958,1.40121E7,0.0
44113143121583,1.4011241E7,0.0
44113152887208,1.4012045E7,0.0
44113162683354,1.4013377E7,0.0
44113172448979,1.4009176E7,0.0
44113182214604,1.4010564E7,0.0
44113191980229,1.4011605E7,0.0
44113201745854,1.4012609E7,0.0
44113211542000,1.4008244E7,0.0
44113221307625,1.4009652E7,0.0
44113231073250,1.4006547E7,0.0
44113240838875,1.4006308E7,0.0
44113250604500,1.4002911E7,0.0
44113260370125,1.400143E7,0.0
44113270135750,1.4006892E7,0.0
44113279901375,1.4007112E7,0.0
44113289667000,1.4003531E7,0.0
44113299432625,1.4009488E7,0.0
44113309198250,1.4012757E7,0.0
44113318963875,1.4016446E7,0.0
44113328729500,1.4004355E7,0.0
44113338495125,1.4009012E7,0.0
44113348260750,1.4005687E7,0.0
44113358056896,1.4007296E7,0.0
44113367822521,1.4009412E7,0.0
44113377588146,1.4003423E7,0.0
44113387353771,1.400251E7,0.0
44113397119396,1.400143E7,0.0
44113406915541,1.3989047E7,0.0
44113416681166,1.3988811E7,0.0
44113426446791,1.3985578E7,0.0
44113436212416,1.3982729E7,0.0
44113445978041,1.3977997E7,0.0
44113455743666,1.3978729E7,0.0
44113465509291,1.3977048E7,0.0
44113475274916,1.3973687E7,0.0
44113485040541,1.3973504E7,0.0
44113494806166,1.3961504E7,0.0
44113504571791,1.395966E7,0.0
44113514306896,1.3960516E7,0.0
44113524072521,1.395776E7,0.0
44113533838146,1.396006E7,0.0
44113543603771,1.3944845E7,0.0
44113553369396,1.3944208E7,0.0
44113563104500,1.3945521E7,0.0
44113572870125,1.3949741E7,0.0
44113582635750,1.3939183E7,0.0
44113592401375,1.3947037E7,0.0
44113599885646,1.3939675E7,0.0
44113609620750,1.3939203E7,0.0
44113619386375,1.3941576E7,0.0
44113629152000,1.3935766E7,0.0
44113638887104,1.3931693E7,0.0
44113648652729,1.3928956E7,0.0
44113658418354,1.3937631E7,0.0
44113668153458,1.392828E7,0.0
44113677919083,1.3927036E7,0.0
44113687684708,1.3927112E7,0.0
44113697450333,1.3926288E7,0.0
44113707215958,1.3922671E7,0.0
44113716981583,1.3927312E7,0.0
44113726747208,1.3923603E7,0.0
44113736512833,1.3921375E7,0.0
44113746278458,1.3920991E7,0.0
44113756044083,1.3922599E7,0.0
44113765809708,1.3921575E7,0.0
44113775575333,1.3919842E7,0.0
44113785340958,1.3917922E7,0.0
44113795137104,1.390952E7,0.0
44113804902729,1.3913065E7,0.0
44113814668354,1.3912828E7,0.0
44113824433979,1.3911568E7,0.0
44113834199604,1.3912845E7,0.0
44113843965229,1.3906271E7,0.0
44113853730854,1.3905339E7,0.0
44113863496479,1.3910436E7,0.0
44113873262104,1.3904918E7,0.0
44113883027729,1.3908224E7,0.0
44113892793354,1.3914853E7,0.0
44113902558979,1.3909228E7,0.0
44113912324604,1.3913449E7,0.0
44113922090229,1.3907183E7,0.0
44113931855854,1.3909047E7,0.0
44113941621479,1.3901666E7,0.0
44113951387104,1.3908663E7,0.0
44113961152729,1.3905575E7,0.0
44113970918354,1.390543E7,0.0
44113980683979,1.3906087E7,0.0
44113990480125,1.3907915E7,0.0
44114000215229,1.390784E7,0.0
44114009980854,1.3913248E7,0.0
44114019746479,1.3905339E7,0.0
44114029512104,1.3906947E7,0.0
44114039277729,1.3902362E7,0.0
44114049012833,1.390912E7,0.0
44114058778458,1.390437E7,0.0
44114068544083,1.3902178E7,0.0
44114078309708,1.390974E7,0.0
44114088075333,1.3904351E7,0.0
44114097840958,1.3904242E7,0.0
44114107606583,1.3902578E7,0.0
44114117372208,1.3907495E7,0.0
44114127137833,1.3901942E7,0.0
44114136933979,1.3905739E7,0.0
44114146699604,1.3905631E7,0.0
44114156465229,1.3905283E7,0.0
44114166230854,1.3903438E7,0.0
44114175996479,1.390784E7,0.0
44114185792625,1.3905099E7,0.0
44114195558250,1.3907787E7,0.0
44114205323875,1.3906779E7,0.0
44114215089500,1.3906471E7,0.0
44114224855125,1.3901538E7,0.0
44114234620750,1.3899677E7,0.0
44114244386375,1.3898141E7,0.0
44114254152000,1.3901538E7,0.0
44114263917625,1.3890999E7,0.0
44114273683250,1.3883693E7,0.0
44114283448875,1.3883585E7,0.0
44114293214500,1.3878396E7,0.0
44114302980125,1.3881957E7,0.0
44114312745750,1.3875492E7,0.0
44114322511375,1.3871547E7,0.0
44114332277000,1.3862084E7,0.0
44114342042625,1.3864973E7,0.0
44114351808250,1.3858251E7,0.0
44114361573875,1.3854267E7,0.0
44114371339500,1.38449E7,0.0
44114381105125,1.3842724E7,0.0
44114390870750,1.3841739E7,0.0
44114400636375,1.3842048E7,0.0
44114410402000,1.3839675E7,0.0
44114420167625,1.3839967E7,0.0
44114429933250,1.3838066E7,0.0
44114439698875,1.3833609E7,0.0
44114449464500,1.3835782E7,0.0
44114459230125,1.3822395E7,0.0
44114468995750,1.3826048E7,0.0
44114478761375,1.3826999E7,0.0
44114488496479,1.3824147E7,0.0
44114498262104,1.3828168E7,0.0
44114508027729,1.3821755E7,0.0
44114517793354,1.382161E7,0.0
44114527558979,1.3814869E7,0.0
44114537324604,1.3815693E7,0.0
44114547090229,1.3812568E7,0.0
44114556855854,1.3812532E7,0.0
44114566621479,1.3808095E7,0.0
44114577496479,1.3811692E7,0.0
44114587231583,1.3808475E7,0.0
44114596997208,1.380309E7,0.0
44114606762833,1.3812824E7,0.0
44114616528458,1.3803746E7,0.0
44114626294083,1.3807126E7,0.0
44114636029187,1.3799145E7,0.0
44114645794812,1.3799233E7,0.0
44114655560437,1.3797152E7,0.0
44114665326062,1.3793811E7,0.0
44114675091687,1.3790687E7,0.0
44114684857312,1.3795672E7,0.0
44114694622937,1.3795508E7,0.0
44114704388562,1.3791927E7,0.0
44114714154187,1.3795216E7,0.0
44114723919812,1.379023E7,0.0
44114733685437,1.3798212E7,0.0
44114743451062,1.3793572E7,0.0
44114753216687,1.3800277E7,0.0
44114762982312,1.3792807E7,0.0
44114772747937,1.3792879E7,0.0
44114782483041,1.3794376E7,0.0
44114792248666,1.3792971E7,0.0
44114802014291,1.378833E7,0.0
44114811779916,1.3783709E7,0.0
44114821545541,1.378919E7,0.0
44114831311166,1.3786614E7,0.0
44114841076791,1.3784769E7,0.0
44114850842416,1.3785245E7,0.0
44114860608041,1.3788002E7,0.0
44114870373666,1.3791507E7,0.0
44114880139291,1.3791507E7,0.0
44114889904916,1.378707E7,0.0
44114899670541,1.3784841E7,0.0
44114909436166,1.378961E7,0.0
44114919201791,1.3784861E7,0.0
44114928967416,1.3783929E7,0.0
44114938733041,1.3784293E7,0.0
44114948498666,1.3781865E7,0.0
44114958264291,1.3780932E7,0.0
44114968029916,1.378517E7,0.0
44114977765021,1.3791635E7,0.0
44114987530646,1.3780969E7,0.0
44114997296271,1.3785701E7,0.0
44115007061896,1.3788878E7,0.0
44115016827521,1.3788458E7,0.0
44115026593146,1.3789938E7,0.0
44115036358771,1.3791727E7,0.0
44115046124396,1.3788038E7,0.0
44115055890021,1.3777007E7,0.0
44115065655646,1.3778103E7,0.0
44115075390750,1.3777024E7,0.0
44115085156375,1.3771654E7,0.0
44115094922000,1.3766593E7,0.0
44115104687625,1.3760512E7,0.0
44115114453250,1.3760292E7,0.0
44115124218875,1.3750301E7,0.0
44115133984500,1.3750029E7,0.0
44115143750125,1.37497E7,0.0
44115153515750,1.3740202E7,0.0
44115163281375,1.3740182E7,0.0
44115173016479,1.3738722E7,0.0
44115182782104,1.3735762E7,0.0
44115192517208,1.3728784E7,0.0
44115202282833,1.3725755E7,0.0
44115212048458,1.3730192E7,0.0
44115221783562,1.3721718E7,0.0
44115231549187,1.3722666E7,0.0
44115241284344,1.3721934E7,0.0
44115251049969,1.3716348E7,0.0
44115260815594,1.3714921E7,0.0
44115270550698,1.3712311E7,0.0
44115280316323,1.3710539E7,0.0
44115290081948,1.3707726E7,0.0
44115299847573,1.3697112E7,0.0
44115309613198,1.3697404E7,0.0
44115319378823,1.3697916E7,0.0
44115329144448,1.3699725E7,0.0
44115338910073,1.3692711E7,0.0
44115348675698,1.3694555E7,0.0
44115358441323,1.3693059E7,0.0
44115368176427,1.3690866E7,0.0
44115377942052,1.3686317E7,0.0
44115387707677,1.3691359E7,0.0
44115397473302,1.3686153E7,0.0
44115407238927,1.3689514E7,0.0
44115417004552,1.3679415E7,0.0
44115426770177,1.3684473E7,0.0
44115436535802,1.3671486E7,0.0
44115446301427,1.3679104E7,0.0
44115456067052,1.3669041E7,0.0
44115465832677,1.3674683E7,0.0
44115475598302,1.3668381E7,0.0
44115485363927,1.3666189E7,0.0
44115495129552,1.3663944E7,0.0
44115504895177,1.3660855E7,0.0
44115514660802,1.3661039E7,0.0
44115524426427,1.3662408E7,0.0
44115534192052,1.3661351E7,0.0
44115543957677,1.365799E7,0.0
44115553083510,1.3653205E7,0.0
44115562849135,1.3656398E7,0.0
44115572614760,1.3653677E7,0.0
44115582380385,1.3659086E7,0.0
44115592176531,1.3651177E7,0.0
44115601942156,1.3654373E7,0.0
44115611707781,1.3658154E7,0.0
44115621503927,1.3652417E7,0.0
44115631269552,1.3651357E7,0.0
44115641035177,1.3656526E7,0.0
44115650831271,1.3651853E7,0.0
44115660596896,1.3650392E7,0.0
44115670362521,1.3651085E7,0.0
44115680128146,1.365481E7,0.0
44115689893771,1.365757E7,0.0
44115699689916,1.3652145E7,0.0
44115709455541,1.3651469E7,0.0
44115719221166,1.3647468E7,0.0
44115728986791,1.3653185E7,0.0
44115738752416,1.3653897E7,0.0
44115748548562,1.3649844E7,0.0
44115758314187,1.3647412E7,0.0
44115768079812,1.3649348E7,0.0
44115777845437,1.3656126E7,0.0
44115787611062,1.3653149E7,0.0
44115797376687,1.3646316E7,0.0
44115807142312,1.3652181E7,0.0
44115816907937,1.3655614E7,0.0
44115826673562,1.3654921E7,0.0
44115836439187,1.3655686E7,0.0
44115846204812,1.3650336E7,0.0
44115855970437,1.3660347E7,0.0
44115865736062,1.3651817E7,0.0
44115875501687,1.365523E7,0.0
44115885267312,1.3654373E7,0.0
44115895032937,1.3650884E7,0.0
44115904798562,1.3645807E7,0.0
44115914564187,1.3644035E7,0.0
44115924329812,1.3638537E7,0.0
44115934095437,1.3637897E7,0.0
44115943891583,1.3629167E7,0.0
44115953657208,1.3624198E7,0.0
44115963422833,1.3621641E7,0.0
44115973188458,1.3617549E7,0.0
44115982954083,1.360975E7,0.0
44115992719708,1.3610591E7,0.0
44116002485333,1.3605677E7,0.0
44116012250958,1.3604818E7,0.0
44116022016583,1.3599852E7,0.0
44116031782208,1.3600508E7,0.0
44116041578354,1.3600052E7,0.0
44116051343979,1.3596288E7,0.0
44116061109604,1.3601476E7,0.0
44116070875229,1.3594335E7,0.0
44116080640854,1.3584196E7,0.0
44116090406479,1.3589586E7,0.0
44116100172104,1.3587501E7,0.0
44116109937729,1.3583084E7,0.0
44116119703354,1.3581968E7,0.0
44116129468979,1.3575922E7,0.0
44116139265125,1.358186E7,0.0
44116149000229,1.357415E7,0.0
44116158765854,1.3578134E7,0.0
44116168531479,1.357395E7,0.0
44116178297104,1.3562207E7,0.0
44116188062729,1.3564215E7,0.0
44116197797833,1.3567284E7,0.0
44116207563458,1.3561531E7,0.0
44116217329083,1.3558918E7,0.0
44116227094708,1.3561767E7,0.0
44116236860333,1.3554569E7,0.0
44116246625958,1.3561731E7,0.0
44116256391583,1.3554773E7,0.0
44116266157208,1.3550332E7,0.0
44116275922833,1.355088E7,0.0
44116285688458,1.3546587E7,0.0
44116295454083,1.3547008E7,0.0
44116305219708,1.3546131E7,0.0
44116314985333,1.3547667E7,0.0
44116324750958,1.3548051E7,0.0
44116334547104,1.3542334E7,0.0
44116344312729,1.3546899E7,0.0
44116354078354,1.354688E7,0.0
44116363843979,1.3542606E7,0.0
44116373609604,1.3544123E7,0.0
44116383375229,1.3540105E7,0.0
44116393140854,1.354277E7,0.0
44116402906479,1.354109E7,0.0
44116412672104,1.3541802E7,0.0
44116422437729,1.3540197E7,0.0
44116432203354,1.3544615E7,0.0
44116441968979,1.354175E7,0.0
44116451734604,1.354299E7,0.0
44116461500229,1.3539958E7,0.0
44116471265854,1.3541878E7,0.0
44116481031479,1.3537457E7,0.0
44116490797104,1.3535556E7,0.0
44116500562729,1.3538313E7,0.0
44116510328354,1.3540378E7,0.0
44116520093979,1.353658E7,0.0
44116529890125,1.35313E7,0.0
44116539655750,1.353919E7,0.0
44116549421375,1.3528123E7,0.0
44116559187000,1.3536708E7,0.0
44116568952625,1.3535576E7,0.0
44116578718250,1.3530935E7,0.0
44116588483875,1.3527318E7,0.0
44116598249500,1.3533692E7,0.0
44116608015125,1.3531044E7,0.0
44116617780750,1.3531611E7,0.0
44116629099760,1.3539721E7,0.0
44116638865385,1.3536085E7,0.0
44116648631010,1.354069E7,0.0
44116658396635,1.3530624E7,0.0
44116668162260,1.3540197E7,0.0
44116677958406,1.3530368E7,0.0
44116687724031,1.3533436E7,0.0
44116697489656,1.3539866E7,0.0
44116707255281,1.3531684E7,0.0
44116717020906,1.3534989E7,0.0
44116726817052,1.3536032E7,0.0
44116736582677,1.3532432E7,0.0
44116746348302,1.3534772E7,0.0
44116756113927,1.3530259E7,0.0
44116765879552,1.3533528E7,0.0
44116775645177,1.3529199E7,0.0
44116785410802,1.3528615E7,0.0
44116795176427,1.3523173E7,0.0
44116804942052,1.3519209E7,0.0
44116814707677,1.3518368E7,0.0
44116824473302,1.35172E7,0.0
44116834238927,1.3512779E7,0.0
44116844004552,1.3509694E7,0.0
44116853770177,1.3507885E7,0.0
44116863535802,1.3503044E7,0.0
44116873331948,1.3492394E7,0.0
44116883097573,1.349371E7,0.0
44116892863198,1.3487225E7,0.0
44116902628823,1.348604E7,0.0
44116912394448,1.3488357E7,0.0
44116922190594,1.3486296E7,0.0
44116931925698,1.3488321E7,0.0
44116941691323,1.347517E7,0.0
44116951456948,1.3474149E7,0.0
44116961222573,1.34692E7,0.0
44116970988198,1.3465491E7,0.0
44116980753823,1.3456633E7,0.0
44116990519448,1.3471225E7,0.0
44117000285073,1.3463079E7,0.0
44117010050698,1.3453873E7,0.0
44117019816323,1.3453088E7,0.0
44117029581948,1.3454204E7,0.0
44117039347573,1.3446111E7,0.0
44117049113198,1.3455373E7,0.0
44117058878823,1.3448615E7,0.0
44117068644448,1.3446642E7,0.0
44117078410073,1.3436284E7,0.0
44117088175698,1.3439225E7,0.0
44117097941323,1.3436704E7,0.0
44117107706948,1.3438404E7,0.0
44117117472573,1.343424E7,0.0
44117127207677,1.3439937E7,0.0
44117136973302,1.3431919E7,0.0
44117146738927,1.3430659E7,0.0
44117156504552,1.343444E7,0.0
44117166270177,1.3430111E7,0.0
44117176035802,1.3427882E7,0.0
44117185801427,1.3422441E7,0.0
44117195567052,1.3418256E7,0.0
44117205332677,1.3418092E7,0.0
44117215098302,1.3418932E7,0.0
44117224833406,1.341391E7,0.0
44117234599031,1.3422185E7,0.0
44117244364656,1.3415719E7,0.0
44117254130281,1.34161E7,0.0
44117263895906,1.341696E7,0.0
44117273661531,1.3416211E7,0.0
44117283427156,1.341694E7,0.0
44117293192781,1.3415079E7,0.0
44117302958406,1.3415115E7,0.0
44117312724031,1.3408502E7,0.0
44117322489656,1.3410914E7,0.0
44117332255281,1.3404265E7,0.0
44117342020906,1.3409161E7,0.0
44117351786531,1.3404885E7,0.0
44117361552156,1.3408997E7,0.0
44117371317781,1.3406677E7,0.0
44117381083406,1.3406401E7,0.0
44117390849031,1.340863E7,0.0
44117400614656,1.340284E7,0.0
44117410380281,1.3406693E7,0.0
44117420115385,1.3407901E7,0.0
44117429881010,1.3403917E7,0.0
44117439646635,1.3400503E7,0.0
44117449412260,1.3403408E7,0.0
44117459177885,1.3401271E7,0.0
44117468943510,1.3400339E7,0.0
44117478709135,1.3401672E7,0.0
44117488474760,1.34018E7,0.0
44117498240385,1.3400211E7,0.0
44117508006010,1.3401563E7,0.0
44117517771635,1.3407661E7,0.0
44117527537260,1.3399991E7,0.0
44117537302885,1.3399955E7,0.0
44117547068510,1.3399771E7,0.0
44117556834135,1.3396394E7,0.0
44117566599760,1.3399771E7,0.0
44117576365385,1.3398203E7,0.0
44117586131010,1.3397343E7,0.0
44117595896635,1.3395134E7,0.0
44117605831739,1.3399643E7,0.0
44117615566844,1.3394714E7,0.0
44117625332469,1.340284E7,0.0
44117635098094,1.339557E7,0.0
44117644833198,1.3405837E7,0.0
44117654598823,1.3403536E7,0.0
44117664364448,1.339643E7,0.0
44117674099552,1.3388649E7,0.0
44117683865177,1.3387789E7,0.0
44117693630802,1.3390181E7,0.0
44117703396427,1.3378602E7,0.0
44117713162052,1.3375698E7,0.0
44117722927677,1.3370564E7,0.0
44117732693302,1.3360009E7,0.0
44117742458927,1.3357745E7,0.0
44117752224552,1.3351624E7,0.0
44117761990177,1.3355441E7,0.0
44117771755802,1.3350091E7,0.0
44117781521427,1.3343369E7,0.0
44117791287052,1.3339753E7,0.0
44117801083198,1.3337688E7,0.0
44117810848823,1.333632E7,0.0
44117820614448,1.3331278E7,0.0
44117830380073,1.3328466E7,0.0
44117840145698,1.3326145E7,0.0
44117849911323,1.3323897E7,0.0
44117859676948,1.3324317E7,0.0
44117869442573,1.331966E7,0.0
44117879208198,1.3321304E7,0.0
44117888973823,1.3314875E7,0.0
44117898739448,1.3313214E7,0.0
44117908505073,1.3306253E7,0.0
44117918270698,1.3310966E7,0.0
44117928036323,1.3311058E7,0.0
44117937801948,1.3308261E7,0.0
44117947567573,1.330554E7,0.0
44117957333198,1.3307221E7,0.0
44117967098823,1.3304408E7,0.0
44117976864448,1.330536E7,0.0
44117986630073,1.3301139E7,0.0
44117996395698,1.3296974E7,0.0
44118006130802,1.3295622E7,0.0
44118015896427,1.3299331E7,0.0
44118025662052,1.32885E7,0.0
44118035427677,1.3287332E7,0.0
44118045193302,1.3292097E7,0.0
44118054958927,1.3282198E7,0.0
44118064724552,1.3276461E7,0.0
44118074490177,1.3282271E7,0.0
44118084255802,1.3279478E7,0.0
44118094021427,1.3282619E7,0.0
44118103756531,1.3282582E7,0.0
44118113522156,1.3285323E7,0.0
44118123287781,1.3277814E7,0.0
44118133053406,1.3273376E7,0.0
44118142819031,1.3273852E7,0.0
44118152554135,1.3273596E7,0.0
44118162319760,1.327208E7,0.0
44118172085385,1.3277357E7,0.0
44118181851010,1.3269943E7,0.0
44118191616635,1.3272096E7,0.0
44118201382260,1.3271256E7,0.0
44118211147885,1.3272352E7,0.0
44118220913510,1.3267383E7,0.0
44118230679135,1.3270308E7,0.0
44118240444760,1.3268847E7,0.0
44118250210385,1.3268315E7,0.0
44118259976010,1.326355E7,0.0
44118269741635,1.3265083E7,0.0
44118279507260,1.3263898E7,0.0
44118289303406,1.3264571E7,0.0
44118299038510,1.3267075E7,0.0
44118308804135,1.3275585E7,0.0
44118318569760,1.3268371E7,0.0
44118328335385,1.3271804E7,0.0
44118338101010,1.3272464E7,0.0
44118347866635,1.3267823E7,0.0
44118357632260,1.3267239E7,0.0
44118367397885,1.3267203E7,0.0
44118377163510,1.3273012E7,0.0
44118386929135,1.3266799E7,0.0
44118396664291,1.3273997E7,0.0
44118406429916,1.3270912E7,0.0
44118416195541,1.3269248E7,0.0
44118425930646,1.3268919E7,0.0
44118435696271,1.3265119E7,0.0
44118445461896,1.32704E7,0.0
44118455197000,1.3263602E7,0.0
44118464962625,1.3265942E7,0.0
44118474728250,1.3268955E7,0.0
44118484493875,1.3269576E7,0.0
44118494228979,1.3275021E7,0.0
44118503994604,1.327142E7,0.0
44118513760229,1.3267147E7,0.0
44118523525854,1.3272408E7,0.0
44118533291479,1.326501E7,0.0
44118543057104,1.3263238E7,0.0
44118552822729,1.3261357E7,0.0
44118562588354,1.325312E7,0.0
44118572353979,1.3249211E7,0.0
44118580734656,1.3245538E7,0.0
44118590500281,1.3248242E7,0.0
44118600265906,1.3241009E7,0.0
44118610031531,1.3236004E7,0.0
44118619797156,1.3234707E7,0.0
44118629593302,1.3236315E7,0.0
44118639358927,1.3226361E7,0.0
44118649124552,1.3223913E7,0.0
44118658890177,1.3221136E7,0.0
44118668655802,1.3223529E7,0.0
44118678451948,1.3219547E7,0.0
44118688217573,1.3214598E7,0.0
44118697983198,1.3223273E7,0.0
44118707748823,1.3218999E7,0.0
44118717544969,1.3211858E7,0.0
44118727310594,1.3208333E7,0.0
44118737076219,1.3216278E7,0.0
44118746872312,1.3214578E7,0.0
44118756637937,1.3207384E7,0.0
44118766403562,1.3220187E7,0.0
44118776199708,1.3207236E7,0.0
44118785965333,1.3203347E7,0.0
44118795730958,1.3202835E7,0.0
44118805496583,1.3202635E7,0.0
44118815292729,1.3199327E7,0.0
44118825058354,1.3195966E7,0.0
44118834823979,1.3200754E7,0.0
44118844620125,1.3193065E7,0.0
44118854385750,1.3194669E7,0.0
44118864151375,1.3192369E7,0.0
44118873947521,1.3192277E7,0.0
44118883713146,1.3197246E7,0.0
44118893478771,1.3194853E7,0.0
44118903244396,1.3187803E7,0.0
44118913010021,1.3184534E7,0.0
44118922806166,1.3183218E7,0.0
44118932571791,1.3189372E7,0.0
44118942337416,1.3187311E7,0.0
44118952103041,1.3178141E7,0.0
44118961868666,1.3184167E7,0.0
44118971664812,1.3186763E7,0.0
44118981430437,1.3181558E7,0.0
44118991196062,1.3182378E7,0.0
44119000961687,1.318035E7,0.0
44119010727312,1.3177757E7,0.0
44119020523458,1.3176169E7,0.0
44119030289083,1.3185043E7,0.0
44119040054708,1.318057E7,0.0
44119049820333,1.3184114E7,0.0
44119059585958,1.3180242E7,0.0
44119069382104,1.3179437E7,0.0
44119079147729,1.3181482E7,0.0
44119088913354,1.3182158E7,0.0
44119098678979,1.3181958E7,0.0
44119108444604,1.3186743E7,0.0
44119118210229,1.3186779E7,0.0
44119127975854,1.3188624E7,0.0
44119137741479,1.3190196E7,0.0
44119147507104,1.3187055E7,0.0
44119157272729,1.3186031E7,0.0
44119167068875,1.3189064E7,0.0
44119176834500,1.3191473E7,0.0
44119186600125,1.3188388E7,0.0
44119196365750,1.318848E7,0.0
44119206131375,1.3187912E7,0.0
44119215897000,1.3183438E7,0.0
44119225662625,1.318866E7,0.0
44119235428250,1.3186724E7,0.0
44119245193875,1.3179785E7,0.0
44119254959500,1.3179037E7,0.0
44119264725125,1.3183583E7,0.0
44119274490750,1.3192644E7,0.0
44119284286896,1.3181118E7,0.0
44119294052521,1.3182926E7,0.0
44119303848666,1.3185503E7,0.0
44119313644812,1.3179802E7,0.0
44119323410437,1.3182578E7,0.0
44119333206583,1.3193209E7,0.0
44119342972208,1.3190889E7,0.0
44119352768354,1.3193409E7,0.0
44119362564500,1.3191765E7,0.0
44119372299604,1.3181722E7,0.0
44119382065229,1.3180842E7,0.0
44119391830854,1.318181E7,0.0
44119401596479,1.3179382E7,0.0
44119411362104,1.3172132E7,0.0
44119421127729,1.3173848E7,0.0
44119430893354,1.3170251E7,0.0
44119440658979,1.3159857E7,0.0
44119450424604,1.3166286E7,0.0
44119460190229,1.3160077E7,0.0
44119469955854,1.3156476E7,0.0
44119479721479,1.3151747E7,0.0
44119489517625,1.3145737E7,0.0
44119499283250,1.3144149E7,0.0
44119509079344,1.3146194E7,0.0
44119518844969,1.3144881E7,0.0
44119528610594,1.3141024E7,0.0
44119538406739,1.3140112E7,0.0
44119548172364,1.3136859E7,0.0
44119557968510,1.3137191E7,0.0
44119567734135,1.3135983E7,0.0
44119577499760,1.3133958E7,0.0
44119587265385,1.3132934E7,0.0
44119597031010,1.3136771E7,0.0
44119606796635,1.3125536E7,0.0
44119616562260,1.3128277E7,0.0
44119626327885,1.3121043E7,0.0
44119636093510,1.3127125E7,0.0
44119645859135,1.3122504E7,0.0
44119657565541,1.3127617E7,0.0
44119667300646,1.3126029E7,0.0
44119677066271,1.3122816E7,0.0
44119686831896,1.3122267E7,0.0
44119696597521,1.3119783E7,0.0
44119706363146,1.3127673E7,0.0
44119716128771,1.3116714E7,0.0
44119725894396,1.3123656E7,0.0
44119735660021,1.3118414E7,0.0
44119745425646,1.3118139E7,0.0
44119755191271,1.3122176E7,0.0
44119764956896,1.3121115E7,0.0
44119774722521,1.3115546E7,0.0
44119784518666,1.3109536E7,0.0
44119794284291,1.3110468E7,0.0
44119804080437,1.3111253E7,0.0
44119813846062,1.3108932E7,0.0
44119823611687,1.3112113E7,0.0
44119833407833,1.3112241E7,0.0
44119843173458,1.3110065E7,0.0
44119852969604,1.3112037E7,0.0
44119862704708,1.3115382E7,0.0
44119872470333,1.3109261E7,0.0
44119882235958,1.3115382E7,0.0
44119892001583,1.3114358E7,0.0
44119901767208,1.3110741E7,0.0
44119911532833,1.3113481E7,0.0
44119921298458,1.3111145E7,0.0
44119931064083,1.3110413E7,0.0
44119940829708,1.3106888E7,0.0
44119950595333,1.3107656E7,0.0
44119960360958,1.3110761E7,0.0
44119970126583,1.3114594E7,0.0
44119979892208,1.3118122E7,0.0
44119989657833,1.3109901E7,0.0
44119999423458,1.3117226E7,0.0
44120009189083,1.3109353E7,0.0
44120018954708,1.3110393E7,0.0
44120028720333,1.3118247E7,0.0
44120038485958,1.311359E7,0.0
44120048282104,1.3113426E7,0.0
44120058017208,1.3114138E7,0.0
44120067782833,1.3122779E7,0.0
44120077548458,1.3114706E7,0.0
44120087314083,1.3113645E7,0.0
44120097079708,1.311611E7,0.0
44120106845333,1.3112989E7,0.0
44120116610958,1.3119051E7,0.0
44120126376583,1.3107636E7,0.0
44120136142208,1.3110012E7,0.0
44120145907833,1.3115106E7,0.0
44120155642937,1.3116146E7,0.0
44120165408562,1.311014E7,0.0
44120175174187,1.3111837E7,0.0
44120184939812,1.3117154E7,0.0
44120194705437,1.3111361E7,0.0
44120204471062,1.3118851E7,0.0
44120214236687,1.3112786E7,0.0
44120224002312,1.310886E7,0.0
44120233767937,1.3115126E7,0.0
44120243533562,1.3104219E7,0.0
44120253299187,1.3100438E7,0.0
44120263064812,1.3100478E7,0.0
44120272860958,1.3093645E7,0.0
44120282626583,1.3092749E7,0.0
44120292422729,1.3088403E7,0.0
44120302188354,1.3086283E7,0.0
44120311953979,1.3085682E7,0.0
44120321750125,1.3083418E7,0.0
44120331515750,1.3079197E7,0.0
44120341311896,1.3083398E7,0.0
44120351077521,1.3077973E7,0.0
44120360843146,1.3081406E7,0.0
44120370608771,1.3075636E7,0.0
44120380374396,1.3076841E7,0.0
44120390140021,1.3078813E7,0.0
44120399905646,1.3068494E7,0.0
44120409671271,1.3070539E7,0.0
44120419436896,1.3069899E7,0.0
44120429202521,1.3072091E7,0.0
44120438998666,1.3068639E7,0.0
44120448764291,1.3068603E7,0.0
44120458529916,1.3064513E7,0.0
44120468295541,1.3067562E7,0.0
44120478061166,1.3067726E7,0.0
44120487857312,1.3066066E7,0.0
44120497622937,1.3066906E7,0.0
44120507388562,1.3057627E7,0.0
44120517154187,1.3063125E7,0.0
44120526919812,1.3056896E7,0.0
44120536715958,1.3060841E7,0.0
44120546481583,1.3063305E7,0.0
44120556247208,1.3060148E7,0.0
44120566012833,1.3055707E7,0.0
44120575778458,1.3057772E7,0.0
44120585544083,1.3057188E7,0.0
44120595309708,1.3061681E7,0.0
44120605075333,1.3051306E7,0.0
44120614840958,1.3049918E7,0.0
44120624606583,1.3055908E7,0.0
44120634882000,1.3049426E7,0.0
44120644647625,1.3043817E7,0.0
44120654413250,1.3053259E7,0.0
44120664178875,1.3049225E7,0.0
44120673944500,1.3053223E7,0.0
44120683710125,1.304895E7,0.0
44120693475750,1.3052127E7,0.0
44120703241375,1.3053023E7,0.0
44120713007000,1.3054319E7,0.0
44120722772625,1.3054303E7,0.0
44120732568771,1.305852E7,0.0
44120742334396,1.3053351E7,0.0
44120752100021,1.3055488E7,0.0
44120761865646,1.305664E7,0.0
44120771631271,1.3048438E7,0.0
44120781427416,1.3054375E7,0.0
44120791193041,1.3056072E7,0.0
44120800958666,1.3061297E7,0.0
44120810724291,1.3052494E7,0.0
44120820489916,1.3050574E7,0.0
44120830286062,1.3047141E7,0.0
44120840051687,1.3046029E7,0.0
44120849817312,1.3049298E7,0.0
44120859582937,1.3052074E7,0.0
44120869348562,1.3054319E7,0.0
44120879114187,1.3057808E7,0.0
44120888879812,1.3056091E7,0.0
44120898645437,1.3056036E7,0.0
44120908411062,1.3052967E7,0.0
44120918176687,1.30581E7,0.0
44120927972781,1.30577E7,0.0
44120937738406,1.3056456E7,0.0
44120947504031,1.3061589E7,0.0
44120957269656,1.3055488E7,0.0
44120967035281,1.3057332E7,0.0
44120976800906,1.3056E7,0.0
44120986566531,1.3058776E7,0.0
44120996332156,1.3061609E7,0.0
44121006097781,1.3064769E7,0.0
44121015863406,1.3055799E7,0.0
44121025659552,1.3062449E7,0.0
44121035425177,1.3059288E7,0.0
44121045190802,1.306128E7,0.0
44121054956427,1.3064129E7,0.0
44121064722052,1.3060493E7,0.0
44121074518198,1.3058592E7,0.0
44121084283823,1.3061517E7,0.0
44121094049448,1.3064237E7,0.0
44121103815073,1.3060128E7,0.0
44121113580698,1.3061152E7,0.0
44121123376844,1.3054887E7,0.0
44121133142469,1.3049261E7,0.0
44121142908094,1.3049133E7,0.0
44121152673719,1.3045569E7,0.0
44121162439344,1.3040859E7,0.0
44121172235489,1.3036383E7,0.0
44121182001114,1.3035782E7,0.0
44121191766739,1.3032986E7,0.0
44121201532364,1.3030573E7,0.0
44121211297989,1.3029861E7,0.0
44121221094135,1.3026284E7,0.0
44121230859760,1.30265E7,0.0
44121240625385,1.3022759E7,0.0
44121250391010,1.3030829E7,0.0
44121260156635,1.3032986E7,0.0
44121269922260,1.3026628E7,0.0
44121279687885,1.3022411E7,0.0
44121289453510,1.3030957E7,0.0
44121299219135,1.3022483E7,0.0
44121308984760,1.301989E7,0.0
44121318780906,1.3023251E7,0.0
44121328546531,1.3018902E7,0.0
44121338312156,1.3021623E7,0.0
44121348077781,1.3021243E7,0.0
44121357843406,1.3015817E7,0.0
44121367639552,1.3012309E7,0.0
44121377405177,1.3019178E7,0.0
44121387170802,1.3020054E7,0.0
44121396936427,1.3018666E7,0.0
44121406702052,1.3019943E7,0.0
44121416498198,1.3016694E7,0.0
44121426263823,1.3018062E7,0.0
44121436029448,1.3011268E7,0.0
44121445795073,1.3007195E7,0.0
44121455560698,1.3008948E7,0.0
44121465356844,1.3007927E7,0.0
44121475122469,1.3008912E7,0.0
44121484888094,1.301094E7,0.0
44121494653719,1.3006355E7,0.0
44121504419344,1.3012329E7,0.0
44121514215489,1.3016749E7,0.0
44121523981114,1.3018994E7,0.0
44121533746739,1.3012457E7,0.0
44121543512364,1.3016126E7,0.0
44121553277989,1.3012036E7,0.0
44121563043614,1.3013953E7,0.0
44121572809239,1.3013205E7,0.0
44121582574864,1.3015286E7,0.0
44121592340489,1.3016986E7,0.0
44121602106114,1.3018518E7,0.0
44121611627833,1.3019598E7,0.0
44121621393458,1.3018138E7,0.0
44121631159083,1.301032E7,0.0
44121640924708,1.3016146E7,0.0
44121650690333,1.3014941E7,0.0
44121660486479,1.3013389E7,0.0
44121670252104,1.3016126E7,0.0
44121680017729,1.3020547E7,0.0
44121689783354,1.3015233E7,0.0
44121699548979,1.301799E7,0.0
44121709345125,1.3021078E7,0.0
44121719110750,1.3022283E7,0.0
44121728876375,1.3019854E7,0.0
44121738642000,1.3026244E7,0.0
44121748438146,1.302272E7,0.0
44121758203771,1.3019195E7,0.0
44121767969396,1.3026136E7,0.0
44121777765541,1.3028365E7,0.0
44121787531166,1.3025644E7,0.0
44121797296791,1.3024164E7,0.0
44121807092937,1.3029205E7,0.0
44121816858562,1.30242E7,0.0
44121826654656,1.3022411E7,0.0
44121836420281,1.3025624E7,0.0
44121846216427,1.3026356E7,0.0
44121855982052,1.3032073E7,0.0
44121865778198,1.3033133E7,0.0
44121875543823,1.3031049E7,0.0
44121885339969,1.303253E7,0.0
44121895105594,1.3029681E7,0.0
44121904901739,1.3034866E7,0.0
44121914667364,1.3031689E7,0.0
44121924432989,1.3031706E7,0.0
44121934198614,1.304084E7,0.0
44121943964239,1.3038119E7,0.0
44121953760385,1.3038795E7,0.0
44121963526010,1.3044384E7,0.0
44121973291635,1.3037115E7,0.0
44121983057260,1.3036366E7,0.0
44121992822885,1.3028457E7,0.0
44122002619031,1.3021315E7,0.0
44122012384656,1.3024492E7,0.0
44122022150281,1.3020895E7,0.0
44122031915906,1.3019067E7,0.0
44122041681531,1.3015781E7,0.0
44122051447156,1.3014793E7,0.0
44122061212781,1.3013297E7,0.0
44122070978406,1.3011561E7,0.0
44122080744031,1.3012128E7,0.0
44122090509656,1.3005131E7,0.0
44122100275281,1.3006976E7,0.0
44122110040906,1.3012529E7,0.0
44122119806531,1.3006848E7,0.0
44122129572156,1.3010448E7,0.0
44122139368302,1.3002866E7,0.0
44122149133927,1.3003378E7,0.0
44122158899552,1.3004947E7,0.0
44122168695698,1.3002154E7,0.0
44122178461323,1.3002502E7,0.0
44122188226948,1.3002719E7,0.0
44122198023094,1.3002518E7,0.0
44122207788719,1.2999778E7,0.0
44122217554344,1.3001422E7,0.0
44122227319969,1.2998081E7,0.0
44122237085594,1.3000858E7,0.0
44122246851219,1.3002574E7,0.0
44122256616844,1.3007031E7,0.0
44122266382469,1.3001514E7,0.0
44122276148094,1.2998025E7,0.0
44122285913719,1.3007195E7,0.0
44122295709864,1.3003487E7,0.0
44122305444969,1.300113E7,0.0
44122315210594,1.2998829E7,0.0
44122324976219,1.3005003E7,0.0
44122334741844,1.300305E7,0.0
44122344507469,1.300672E7,0.0
44122354273094,1.2998501E7,0.0
44122364038719,1.2997185E7,0.0
44122373804344,1.2997257E7,0.0
44122383569969,1.3005843E7,0.0
44122393335594,1.3006647E7,0.0
44122403101219,1.299989E7,0.0
44122412866844,1.2998701E7,0.0
44122422632469,1.3003014E7,0.0
44122432398094,1.3001386E7,0.0
44122442194239,1.3004163E7,0.0
44122451959864,1.3002427E7,0.0
44122461725489,1.3009224E7,0.0
44122471491114,1.3002338E7,0.0
44122481256739,1.3008876E7,0.0
44122491052885,1.2999962E7,0.0
44122500818510,1.300818E7,0.0
44122510584135,1.3010921E7,0.0
44122520349760,1.3007543E7,0.0
44122530115385,1.3007944E7,0.0
44122539881010,1.3011377E7,0.0
44122549646635,1.3006539E7,0.0
44122559412260,1.3007688E7,0.0
44122569177885,1.3012309E7,0.0
44122578943510,1.3009772E7,0.0
44122588739656,1.3012749E7,0.0
44122598505281,1.3010756E7,0.0
44122608270906,1.301693E7,0.0
44122618036531,1.3009188E7,0.0
44122627802156,1.3013425E7,0.0
44122637567781,1.3013441E7,0.0
44122647333406,1.3016914E7,0.0
44122657099031,1.301797E7,0.0
44122666864656,1.3020859E7,0.0
44122676630281,1.3015085E7,0.0
44122686736531,1.3012437E7,0.0
44122696502156,1.3013937E7,0.0
44122706267781,1.3021751E7,0.0
44122716033406,1.3016602E7,0.0
44122725799031,1.3020658E7,0.0
44122735595177,1.3017078E7,0.0
44122745360802,1.3019579E7,0.0
44122755126427,1.3019122E7,0.0
44122764892052,1.3020547E7,0.0
44122774657677,1.3020731E7,0.0
44122784453823,1.3019651E7,0.0
44122794219448,1.3025936E7,0.0
44122803985073,1.3029789E7,0.0
44122813750698,1.302608E7,0.0
44122823516323,1.3027396E7,0.0
44122833281948,1.3034174E7,0.0
44122843047573,1.30263E7,0.0
44122852813198,1.3028821E7,0.0
44122862578823,1.3029205E7,0.0
44122872344448,1.3031414E7,0.0
44122882140594,1.3037059E7,0.0
44122891906219,1.3028273E7,0.0
44122901671844,1.302632E7,0.0
44122911437469,1.3031213E7,0.0
44122921203094,1.3027725E7,0.0
44122930968719,1.3033206E7,0.0
44122940734344,1.3028893E7,0.0
44122950499969,1.3025296E7,0.0
44122960265594,1.301629E7,0.0
44122970031219,1.3030245E7,0.0
44122979796844,1.3018174E7,0.0
44122989562469,1.3019779E7,0.0
44122999328094,1.3012017E7,0.0
44123009093719,1.3007596E7,0.0
44123018859344,1.300818E7,0.0
44123028624969,1.300283E7,0.0
44123038390594,1.3005607E7,0.0
44123048156219,1.300093E7,0.0
44123057921844,1.3002958E7,0.0
44123067687469,1.3005991E7,0.0
44123077483562,1.3007087E7,0.0
44123087249187,1.3000126E7,0.0
44123097014812,1.3001806E7,0.0
44123106780437,1.3004235E7,0.0
44123116546062,1.3003178E7,0.0
44123126311687,1.300347E7,0.0
44123136077312,1.3012381E7,0.0
44123145842937,1.3006411E7,0.0
44123155608562,1.3004327E7,0.0
44123165374187,1.3003139E7,0.0
44123175170333,1.3001222E7,0.0
44123184935958,1.3010428E7,0.0
44123194701583,1.3007432E7,0.0
44123204467208,1.3006667E7,0.0
44123214232833,1.3009644E7,0.0
44123223998458,1.300197E7,0.0
44123233764083,1.300283E7,0.0
44123243529708,1.3000694E7,0.0
44123253295333,1.2998994E7,0.0
44123263060958,1.300031E7,0.0
44123272857104,1.2999177E7,0.0
44123282622729,1.300239E7,0.0
44123292388354,1.2998537E7,0.0
44123302153979,1.3000274E7,0.0
44123311919604,1.3003726E7,0.0
44123321685229,1.3003634E7,0.0
44123331450854,1.3003943E7,0.0
44123341216479,1.3003707E7,0.0
44123350982104,1.3001826E7,0.0
44123360747729,1.3006884E7,0.0
44123370543875,1.300113E7,0.0
44123380278979,1.3007031E7,0.0
44123390044604,1.3004182E7,0.0
44123399810229,1.3001734E7,0.0
44123409575854,1.3010592E7,0.0
44123419341479,1.3002118E7,0.0
44123429107104,1.3004967E7,0.0
44123438872729,1.3004639E7,0.0
44123448638354,1.3003122E7,0.0
44123458403979,1.30099E7,0.0
44123468169604,1.3007724E7,0.0
44123477935229,1.3006319E7,0.0
44123487700854,1.3006299E7,0.0
44123497466479,1.3008768E7,0.0
44123507232104,1.3014209E7,0.0
44123517028250,1.3005295E7,0.0
44123526793875,1.3010244E7,0.0
44123536559500,1.3009788E7,0.0
44123546325125,1.3012548E7,0.0
44123556090750,1.3011232E7,0.0
44123565886896,1.3013845E7,0.0
44123575622000,1.3012309E7,0.0
44123585387625,1.3016694E7,0.0
44123595153250,1.3019214E7,0.0
44123604918875,1.3014482E7,0.0
44123614684500,1.3017718E7,0.0
44123624450125,1.301629E7,0.0
44123634215750,1.3014866E7,0.0
44123643981375,1.3015197E7,0.0
44123653747000,1.3024036E7,0.0
44123663512625,1.3022867E7,0.0
44123673278250,1.3020182E7,0.0
44123683043875,1.3018338E7,0.0
44123692809500,1.3022503E7,0.0
44123702605646,1.3022555E7,0.0
44123712371271,1.3022171E7,0.0
44123722136896,1.3025552E7,0.0
44123731933041,1.3025316E7,0.0
44123741698666,1.3022043E7,0.0
44123751464291,1.3020511E7,0.0
44123759203823,1.3024748E7,0.0
44123768969448,1.3026412E7,0.0
44123778735073,1.3022155E7,0.0
44123788500698,1.302612E7,0.0
44123798266323,1.3028804E7,0.0
44123808031948,1.302652E7,0.0
44123817797573,1.3029717E7,0.0
44123827563198,1.3027964E7,0.0
44123837328823,1.3027104E7,0.0
44123847094448,1.3027853E7,0.0
44123856860073,1.3027324E7,0.0
44123866595177,1.3028493E7,0.0
44123876360802,1.3022848E7,0.0
44123886126427,1.3033606E7,0.0
44123895892052,1.3025444E7,0.0
44123905657677,1.3027544E7,0.0
44123915392781,1.3016346E7,0.0
44123925158406,1.3011324E7,0.0
44123934924031,1.3017842E7,0.0
44123944689656,1.3013261E7,0.0
44123954455281,1.3010156E7,0.0
44123964190385,1.3013041E7,0.0
44123973956010,1.3008784E7,0.0
44123983721635,1.3000126E7,0.0
44123993456739,1.3003634E7,0.0
44124003222364,1.3002922E7,0.0
44124012987989,1.3003139E7,0.0
44124022723094,1.3002646E7,0.0
44124032488719,1.3003907E7,0.0
44124042254344,1.3009424E7,0.0
44124052019969,1.3002574E7,0.0
44124061755073,1.3000182E7,0.0
44124071520698,1.3002062E7,0.0
44124081286323,1.3003943E7,0.0
44124091051948,1.300177E7,0.0
44124100817573,1.2999269E7,0.0
44124110583198,1.2995032E7,0.0
44124120348823,1.2996673E7,0.0
44124130114448,1.2994537E7,0.0
44124139880073,1.2998701E7,0.0
44124149645698,1.2997533E7,0.0
44124159411323,1.2994537E7,0.0
44124169176948,1.2994116E7,0.0
44124178942573,1.2994336E7,0.0
44124188708198,1.2996529E7,0.0
44124198473823,1.2992932E7,0.0
44124208239448,1.2996985E7,0.0
44124218005073,1.2992692E7,0.0
44124227770698,1.2992328E7,0.0
44124237536323,1.2992128E7,0.0
44124247332469,1.2991963E7,0.0
44124257098094,1.2992676E7,0.0
44124266863719,1.2988291E7,0.0
44124276629344,1.2994153E7,0.0
44124286394969,1.2990355E7,0.0
44124296160594,1.2989151E7,0.0
44124305926219,1.2990355E7,0.0
44124315691844,1.2989587E7,0.0
44124325457469,1.2992676E7,0.0
44124335223094,1.2995121E7,0.0
44124345019239,1.2988819E7,0.0
44124354784864,1.2989971E7,0.0
44124364550489,1.2995761E7,0.0
44124374316114,1.2989771E7,0.0
44124384081739,1.2988182E7,0.0
44124393847364,1.2991504E7,0.0
44124403612989,1.2991908E7,0.0
44124413378614,1.2997405E7,0.0
44124423144239,1.2995121E7,0.0
44124432909864,1.2997769E7,0.0
44124442706010,1.2993532E7,0.0
44124452471635,1.299134E7,0.0
44124462237260,1.298599E7,0.0
44124472002885,1.2992328E7,0.0
44124481768510,1.2989495E7,0.0
44124491534135,1.2989607E7,0.0
44124501299760,1.2989039E7,0.0
44124511065385,1.2992784E7,0.0
44124520831010,1.2989095E7,0.0
44124530596635,1.2991415E7,0.0
44124540392781,1.2996181E7,0.0
44124550127885,1.2991688E7,0.0
44124559893510,1.2992636E7,0.0
44124569659135,1.2995597E7,0.0
44124579424760,1.2998117E7,0.0
44124589190385,1.2994228E7,0.0
44124598925489,1.2994228E7,0.0
44124608691114,1.2997205E7,0.0
44124618456739,1.3005771E7,0.0
44124628222364,1.2996381E7,0.0
44124637987989,1.2995961E7,0.0
44124647753614,1.3001222E7,0.0
44124657519239,1.3006391E7,0.0
44124667284864,1.2999358E7,0.0
44124677050489,1.3000454E7,0.0
44124686816114,1.3006976E7,0.0
44124696581739,1.3000658E7,0.0
44124706347364,1.3014429E7,0.0
44124716112989,1.3008804E7,0.0
44124725878614,1.3004875E7,0.0
44124735674760,1.3007488E7,0.0
44124745440385,1.3014173E7,0.0
44124755206010,1.30101E7,0.0
44124764971635,1.3017934E7,0.0
44124774737260,1.3020619E7,0.0
44124784502885,1.3009788E7,0.0
44124794268510,1.3019999E7,0.0
44124804034135,1.3017934E7,0.0
44124813799760,1.3012877E7,0.0
44124823565385,1.3008492E7,0.0
44124833570958,1.30084E7,0.0
44124843336583,1.3011305E7,0.0
44124853102208,1.30086E7,0.0
44124862867833,1.3006375E7,0.0
44124872663979,1.3001734E7,0.0
44124882429604,1.2999561E7,0.0
44124892195229,1.299967E7,0.0
44124901991375,1.2997625E7,0.0
44124911757000,1.2998226E7,0.0
44124921522625,1.300053E7,0.0
44124931318771,1.2999998E7,0.0
44124941084396,1.2998153E7,0.0
44124950880541,1.2998354E7,0.0
44124960646166,1.2994317E7,0.0
44124970442312,1.2989515E7,0.0
44124980238458,1.2985458E7,0.0
44124990004083,1.2990227E7,0.0
44124999800229,1.2985114E7,0.0
44125009565854,1.2985186E7,0.0
44125019362000,1.298449E7,0.0
44125029158146,1.2982465E7,0.0
44125038923771,1.2986646E7,0.0
44125048689396,1.2980401E7,0.0
44125058455021,1.2983013E7,0.0
44125068251166,1.2978372E7,0.0
44125078016791,1.2982921E7,0.0
44125087782416,1.2981405E7,0.0
44125097578562,1.298683E7,0.0
44125107344187,1.2980785E7,0.0
44125117109812,1.2981221E7,0.0
44125126905958,1.298409E7,0.0
44125136671583,1.2989351E7,0.0
44125146437208,1.2983213E7,0.0
44125156202833,1.2982849E7,0.0
44125165968458,1.2987615E7,0.0
44125175764552,1.2989003E7,0.0
44125185530177,1.298473E7,0.0
44125195295802,1.2983725E7,0.0
44125205061427,1.2984162E7,0.0
44125214827052,1.2984474E7,0.0
44125224623198,1.2987067E7,0.0
44125234388823,1.2985442E7,0.0
44125244154448,1.2981805E7,0.0
44125253920073,1.2977897E7,0.0
44125263716219,1.2983725E7,0.0
44125273481844,1.2977476E7,0.0
44125283247469,1.2979488E7,0.0
44125293043614,1.2978445E7,0.0
44125302809239,1.2976876E7,0.0
44125312574864,1.2976692E7,0.0
44125322371010,1.2976748E7,0.0
44125332136635,1.2979669E7,0.0
44125341902260,1.2983942E7,0.0
44125351667885,1.2982061E7,0.0
44125361433510,1.297808E7,0.0
44125371229656,1.297852E7,0.0
44125380995281,1.2979652E7,0.0
44125390760906,1.2979652E7,0.0
44125400526531,1.2985002E7,0.0
44125410292156,1.298387E7,0.0
44125420088302,1.2976216E7,0.0
44125429853927,1.298451E7,0.0
44125439619552,1.2976344E7,0.0
44125449385177,1.2984274E7,0.0
44125459150802,1.2983725E7,0.0
44125468916427,1.2982081E7,0.0
44125478682052,1.298303E7,0.0
44125488447677,1.298577E7,0.0
44125498213302,1.2986082E7,0.0
44125507978927,1.2985442E7,0.0
44125517775073,1.2986975E7,0.0
44125527540698,1.2986774E7,0.0
44125537306323,1.2987963E7,0.0
44125547071948,1.2989295E7,0.0
44125556837573,1.2990756E7,0.0
44125566603198,1.2984054E7,0.0
44125576368823,1.2995469E7,0.0
44125586134448,1.2988235E7,0.0
44125595900073,1.2988235E7,0.0
44125605665698,1.2988783E7,0.0
44125615461844,1.2986282E7,0.0
44125625227469,1.2988639E7,0.0
44125634993094,1.298767E7,0.0
44125644758719,1.2985038E7,0.0
44125654524344,1.299198E7,0.0
44125664320489,1.2996929E7,0.0
44125674086114,1.2996801E7,0.0
44125683851739,1.2998537E7,0.0
44125693617364,1.2995433E7,0.0
44125703382989,1.299242E7,0.0
44125713179135,1.2990555E7,0.0
44125722944760,1.2995196E7,0.0
44125732710385,1.2997441E7,0.0
44125742476010,1.2993772E7,0.0
44125752241635,1.3001734E7,0.0
44125762007260,1.3002758E7,0.0
44125771772885,1.2991451E7,0.0
44125781538510,1.2999269E7,0.0
44125791304135,1.2999269E7,0.0
44125801069760,1.3002098E7,0.0
44125813355958,1.299324E7,0.0
44125823121583,1.2996345E7,0.0
44125832887208,1.2996109E7,0.0
44125842652833,1.2996529E7,0.0
44125852418458,1.2994064E7,0.0
44125862184083,1.2985642E7,0.0
44125871949708,1.2985114E7,0.0
44125881715333,1.2987103E7,0.0
44125891480958,1.2981989E7,0.0
44125901246583,1.2977568E7,0.0
44125911012208,1.2983778E7,0.0
44125920747312,1.2972419E7,0.0
44125930512937,1.2970282E7,0.0
44125940278562,1.2968566E7,0.0
44125950044187,1.2964125E7,0.0
44125959809812,1.2963469E7,0.0
44125969544916,1.2962701E7,0.0
44125979310541,1.2964473E7,0.0
44125989076166,1.2962773E7,0.0
44125998841791,1.2965293E7,0.0
44126008607416,1.2964381E7,0.0
44126018373041,1.2959996E7,0.0
44126028138666,1.2962044E7,0.0
44126037904291,1.2963597E7,0.0
44126047700437,1.2955195E7,0.0
44126057466062,1.2960108E7,0.0
44126067231687,1.2956163E7,0.0
44126077027833,1.2955103E7,0.0
44126086793458,1.2954811E7,0.0
44126096559083,1.2950006E7,0.0
44126106355229,1.2948525E7,0.0
44126116120854,1.2947121E7,0.0
44126125886479,1.2952638E7,0.0
44126135652104,1.2949933E7,0.0
44126145448250,1.2945001E7,0.0
44126155213875,1.2942007E7,0.0
44126164979500,1.2942171E7,0.0
44126174775646,1.2944016E7,0.0
44126184541271,1.2939195E7,0.0
44126194306896,1.2940015E7,0.0
44126204103041,1.2940051E7,0.0
44126213868666,1.2945165E7,0.0
44126223634291,1.2941184E7,0.0
44126233399916,1.2936582E7,0.0
44126243165541,1.2934682E7,0.0
44126252931166,1.2931869E7,0.0
44126262696791,1.2936618E7,0.0
44126272462416,1.2932489E7,0.0
44126282228041,1.2933914E7,0.0
44126291993666,1.2942756E7,0.0
44126301789760,1.2939615E7,0.0
44126311524916,1.2936726E7,0.0
44126321290541,1.2933037E7,0.0
44126331056166,1.2936418E7,0.0
44126340821791,1.2927504E7,0.0
44126350587416,1.2933494E7,0.0
44126360353041,1.2937878E7,0.0
44126370118666,1.2931813E7,0.0
44126379884291,1.2929805E7,0.0
44126389649916,1.2928472E7,0.0
44126399415541,1.2928052E7,0.0
44126409181166,1.2927448E7,0.0
44126418946791,1.2931649E7,0.0
44126428712416,1.2929952E7,0.0
44126438478041,1.2929129E7,0.0
44126448243666,1.2924964E7,0.0
44126458009291,1.2925E7,0.0
44126467774916,1.2922043E7,0.0
44126477540541,1.2931777E7,0.0
44126487306166,1.2927064E7,0.0
44126497102260,1.2932161E7,0.0
44126506867885,1.2930261E7,0.0
44126516633510,1.2923195E7,0.0
44126526399135,1.2923759E7,0.0
44126536164760,1.292922E7,0.0
44126545960906,1.2927688E7,0.0
44126555726531,1.2927776E7,0.0
44126565492156,1.2926135E7,0.0
44126575257781,1.29284E7,0.0
44126585023406,1.2927028E7,0.0
44126594819552,1.2927596E7,0.0
44126604585177,1.292882E7,0.0
44126614350802,1.2925019E7,0.0
44126624116427,1.2926444E7,0.0
44126633882052,1.2925915E7,0.0
44126643647677,1.292816E7,0.0
44126653413302,1.2929933E7,0.0
44126663178927,1.2928288E7,0.0
44126672944552,1.2922571E7,0.0
44126682710177,1.2927432E7,0.0
44126692506323,1.2931157E7,0.0
44126702271948,1.2929933E7,0.0
44126712037573,1.2927996E7,0.0
44126721803198,1.2928088E7,0.0
44126731568823,1.2924911E7,0.0
44126741334448,1.2925879E7,0.0
44126751100073,1.2933185E7,0.0
44126760865698,1.2931469E7,0.0
44126770631323,1.2931577E7,0.0
44126780396948,1.2930225E7,0.0
44126789631219,1.2925604E7,0.0
44126799396844,1.2931449E7,0.0
44126809162469,1.2925751E7,0.0
44126818928094,1.292648E7,0.0
44126828693719,1.2923155E7,0.0
44126838459344,1.2930169E7,0.0
44126848224969,1.2924875E7,0.0
44126857990594,1.2914737E7,0.0
44126867756219,1.2910352E7,0.0
44126877521844,1.2911048E7,0.0
44126887317989,1.2906591E7,0.0
44126897053094,1.2904198E7,0.0
44126906818719,1.2895484E7,0.0
44126916584344,1.2896269E7,0.0
44126926349969,1.2890643E7,0.0
44126936115594,1.288533E7,0.0
44126945881219,1.2881769E7,0.0
44126955646844,1.2882625E7,0.0
44126965412469,1.2887066E7,0.0
44126975178094,1.287868E7,0.0
44126984943719,1.2876123E7,0.0
44126994678823,1.2875904E7,0.0
44127004444448,1.2870626E7,0.0
44127014210073,1.2864213E7,0.0
44127023975698,1.2856891E7,0.0
44127033741323,1.2866077E7,0.0
44127043506948,1.2858679E7,0.0
44127053272573,1.2858791E7,0.0
44127063038198,1.2852617E7,0.0
44127072803823,1.2850441E7,0.0
44127082569448,1.2855775E7,0.0
44127092304552,1.2848397E7,0.0
44127102070177,1.2846936E7,0.0
44127111835802,1.2848416E7,0.0
44127121601427,1.2841655E7,0.0
44127131367052,1.284624E7,0.0
44127141132677,1.2838754E7,0.0
44127150898302,1.2845948E7,0.0
44127160663927,1.2840306E7,0.0
44127170429552,1.2838587E7,0.0
44127180195177,1.2835318E7,0.0
44127189960802,1.2835646E7,0.0
44127199726427,1.2840306E7,0.0
44127209492052,1.2840854E7,0.0
44127219257677,1.2834425E7,0.0
44127229023302,1.2824559E7,0.0
44127238788927,1.2824303E7,0.0
44127248554552,1.2821654E7,0.0
44127258320177,1.281552E7,0.0
44127268085802,1.2819173E7,0.0
44127277881948,1.2816469E7,0.0
44127287617052,1.2815465E7,0.0
44127297382677,1.2817125E7,0.0
44127307148302,1.2815537E7,0.0
44127316913927,1.2814641E7,0.0
44127326679552,1.2816321E7,0.0
44127336445177,1.2816489E7,0.0
44127346210802,1.2807246E7,0.0
44127355976427,1.2807318E7,0.0
44127365742052,1.2808123E7,0.0
44127375507677,1.280487E7,0.0
44127385273302,1.2805782E7,0.0
44127395038927,1.2806678E7,0.0
44127404804552,1.2804122E7,0.0
44127414570177,1.2800269E7,0.0
44127424335802,1.2801709E7,0.0
44127434101427,1.2798624E7,0.0
44127443867052,1.2797289E7,0.0
44127453632677,1.2796232E7,0.0
44127463398302,1.2798221E7,0.0
44127473163927,1.2796652E7,0.0
44127482929552,1.2794095E7,0.0
44127492695177,1.2792651E7,0.0
44127502460802,1.2793783E7,0.0
44127512226427,1.2786898E7,0.0
44127521992052,1.2787574E7,0.0
44127531757677,1.2786221E7,0.0
44127541523302,1.2785801E7,0.0
44127551288927,1.2782788E7,0.0
44127561054552,1.2792211E7,0.0
44127570820177,1.2785565E7,0.0
44127580555281,1.2785581E7,0.0
44127590320906,1.2781252E7,0.0
44127600086531,1.2782677E7,0.0
44127609852156,1.2781344E7,0.0
44127619617781,1.2774731E7,0.0
44127629352885,1.2782933E7,0.0
44127639118510,1.2781508E7,0.0
44127648884135,1.2782477E7,0.0
44127658649760,1.2783517E7,0.0
44127668415385,1.2778148E7,0.0
44127678181010,1.2772138E7,0.0
44127687946635,1.2773234E7,0.0
44127697712260,1.2773819E7,0.0
44127707477885,1.2770898E7,0.0
44127717274031,1.2772906E7,0.0
44127727039656,1.2774111E7,0.0
44127736805281,1.2774294E7,0.0
44127746570906,1.2771042E7,0.0
44127756336531,1.2768521E7,0.0
44127766132677,1.2770494E7,0.0
44127775867781,1.276949E7,0.0
44127785633406,1.2771718E7,0.0
44127795399031,1.2770878E7,0.0
44127805134135,1.276224E7,0.0
44127814899760,1.2768049E7,0.0
44127824665385,1.2768193E7,0.0
44127834400541,1.2762968E7,0.0
44127844166166,1.2758055E7,0.0
44127853931791,1.2752101E7,0.0
44127861937573,1.2751993E7,0.0
44127871703198,1.2753765E7,0.0
44127881468823,1.2750877E7,0.0
44127891234448,1.2741799E7,0.0
44127901000073,1.2733873E7,0.0
44127910765698,1.2729872E7,0.0
44127920531323,1.2722858E7,0.0
44127930296948,1.272125E7,0.0
44127940062573,1.2715992E7,0.0
44127949828198,1.2712155E7,0.0
44127959593823,1.2714988E7,0.0
44127969359448,1.2706546E7,0.0
44127979125073,1.2700685E7,0.0
44127988890698,1.2695716E7,0.0
44127998656323,1.2695972E7,0.0
44128008452416,1.2685817E7,0.0
44128018218041,1.2685069E7,0.0
44128027983666,1.2685889E7,0.0
44128037749291,1.2684465E7,0.0
44128047514916,1.2678219E7,0.0
44128057311062,1.2677415E7,0.0
44128067076687,1.267221E7,0.0
44128076842312,1.2667733E7,0.0
44128086607937,1.2672098E7,0.0
44128096373562,1.2666144E7,0.0
44128106139187,1.2664464E7,0.0
44128115904812,1.2661195E7,0.0
44128125670437,1.265935E7,0.0
44128135436062,1.2652593E7,0.0
44128145201687,1.2649452E7,0.0
44128154997833,1.2653377E7,0.0
44128164763458,1.2654546E7,0.0
44128174529083,1.2648136E7,0.0
44128184294708,1.2644191E7,0.0
44128194060333,1.2636025E7,0.0
44128203825958,1.263294E7,0.0
44128213591583,1.2630528E7,0.0
44128223357208,1.2628883E7,0.0
44128233122833,1.2620173E7,0.0
44128242888458,1.2620097E7,0.0
44128252654083,1.2625486E7,0.0
44128262419708,1.2621449E7,0.0
44128272185333,1.2615384E7,0.0
44128281950958,1.2612699E7,0.0
44128291716583,1.260501E7,0.0
44128301482208,1.2611403E7,0.0
44128311247833,1.2608994E7,0.0
44128321013458,1.2602909E7,0.0
44128330779083,1.2604717E7,0.0
44128340544708,1.2603149E7,0.0
44128350340854,1.259858E7,0.0
44128360106479,1.2592426E7,0.0
44128369872104,1.2598216E7,0.0
44128379637729,1.2595094E7,0.0
44128389403354,1.2596443E7,0.0
44128399168979,1.2587513E7,0.0
44128408934604,1.2588425E7,0.0
44128418700229,1.2588061E7,0.0
44128428465854,1.2586105E7,0.0
44128438231479,1.2580608E7,0.0
44128447997104,1.2582528E7,0.0
44128457762729,1.2578835E7,0.0
44128467528354,1.2577411E7,0.0
44128477293979,1.2575386E7,0.0
44128487059604,1.2579511E7,0.0
44128496825229,1.257637E7,0.0
44128506590854,1.2564827E7,0.0
44128516356479,1.2571897E7,0.0
44128526122104,1.2570929E7,0.0
44128535887729,1.2568664E7,0.0
44128545683875,1.2568372E7,0.0
44128555449500,1.2565888E7,0.0
44128565215125,1.2558142E7,0.0
44128574980750,1.2568828E7,0.0
44128584746375,1.2566016E7,0.0
44128594542521,1.2563547E7,0.0
44128604308146,1.2561083E7,0.0
44128614073771,1.2561191E7,0.0
44128623839396,1.2556773E7,0.0
44128633605021,1.2561575E7,0.0
44128643401166,1.2559146E7,0.0
44128653166791,1.255869E7,0.0
44128662932416,1.2558818E7,0.0
44128672698041,1.2553065E7,0.0
44128682463666,1.2555257E7,0.0
44128692259812,1.2557065E7,0.0
44128702025437,1.2553685E7,0.0
44128711791062,1.2549412E7,0.0
44128721556687,1.2543602E7,0.0
44128731322312,1.2545631E7,0.0
44128741118458,1.2548808E7,0.0
44128750884083,1.25508E7,0.0
44128760649708,1.2544387E7,0.0
44128770415333,1.254165E7,0.0
44128780180958,1.2542198E7,0.0
44128789946583,1.2544242E7,0.0
44128799712208,1.2529867E7,0.0
44128809477833,1.2525026E7,0.0
44128819243458,1.2523713E7,0.0
44128829009083,1.2513775E7,0.0
44128839158250,1.2507966E7,0.0
44128848923875,1.2506761E7,0.0
44128858689500,1.2500224E7,0.0
44128868455125,1.249615E7,0.0
44128878220750,1.2492114E7,0.0
44128887986375,1.2482159E7,0.0
44128897752000,1.2476918E7,0.0
44128907517625,1.2468568E7,0.0
44128917283250,1.247034E7,0.0
44128927048875,1.2465371E7,0.0
44128936845021,1.2461298E7,0.0
44128946610646,1.2458049E7,0.0
44128956376271,1.2460002E7,0.0
44128966141896,1.2458305E7,0.0
44128975907521,1.2451419E7,0.0
44128985673146,1.2446503E7,0.0
44128995438771,1.2444166E7,0.0
44129005204396,1.244475E7,0.0
44129014970021,1.2438029E7,0.0
44129024735646,1.2432787E7,0.0
44129034531791,1.2434832E7,0.0
44129044297416,1.2429627E7,0.0
44129054063041,1.2424641E7,0.0
44129063828666,1.2425005E7,0.0
44129073594291,1.242687E7,0.0
44129083359916,1.2415435E7,0.0
44129093125541,1.2417391E7,0.0
44129102891166,1.2413735E7,0.0
44129112656791,1.2412038E7,0.0
44129122422416,1.2410285E7,0.0
44129132188041,1.2408989E7,0.0
44129141953666,1.2405681E7,0.0
44129151719291,1.2401572E7,0.0
44129161484916,1.2397059E7,0.0
44129171250541,1.2394046E7,0.0
44129181016166,1.2384055E7,0.0
44129190781791,1.2382483E7,0.0
44129200547416,1.2382539E7,0.0
44129210313041,1.2382227E7,0.0
44129220078666,1.2374849E7,0.0
44129229874812,1.2372969E7,0.0
44129239640437,1.2376474E7,0.0
44129249406062,1.2371104E7,0.0
44129259171687,1.2369588E7,0.0
44129268937312,1.2365151E7,0.0
44129278702937,1.2369424E7,0.0
44129288468562,1.2362026E7,0.0
44129298234187,1.236369E7,0.0
44129307999812,1.2364987E7,0.0
44129317765437,1.2364987E7,0.0
44129327531062,1.235622E7,0.0
44129337296687,1.2356017E7,0.0
44129347062312,1.2361078E7,0.0
44129356827937,1.2360474E7,0.0
44129366593562,1.2362394E7,0.0
44129376359187,1.2357241E7,0.0
44129386124812,1.2353608E7,0.0
44129395890437,1.2352147E7,0.0
44129405656062,1.2350647E7,0.0
44129415421687,1.2351087E7,0.0
44129425187312,1.2350211E7,0.0
44129434922416,1.2354668E7,0.0
44129444688041,1.2352475E7,0.0
44129454453666,1.2347434E7,0.0
44129464219291,1.2343489E7,0.0
44129473984916,1.2345042E7,0.0
44129483750541,1.2347122E7,0.0
44129493516166,1.2349115E7,0.0
44129503281791,1.2344474E7,0.0
44129513047416,1.2349791E7,0.0
44129522813041,1.2349479E7,0.0
44129532578666,1.234517E7,0.0
44129542344291,1.2342173E7,0.0
44129552109916,1.2341461E7,0.0
44129561875541,1.2338921E7,0.0
44129571641166,1.2338957E7,0.0
44129581406791,1.2338448E7,0.0
44129591172416,1.2346318E7,0.0
44129600938041,1.2346574E7,0.0
44129610703666,1.2339761E7,0.0
44129620469291,1.233768E7,0.0
44129630204396,1.233914E7,0.0
44129639970021,1.2346174E7,0.0
44129649735646,1.2344658E7,0.0
44129659501271,1.2339085E7,0.0
44129669266896,1.2346118E7,0.0
44129679032521,1.2339945E7,0.0
44129688798146,1.2337624E7,0.0
44129698563771,1.2336528E7,0.0
44129708329396,1.2341937E7,0.0
44129718095021,1.2339049E7,0.0
44129727830125,1.2331907E7,0.0
44129737595750,1.232787E7,0.0
44129747361375,1.2325533E7,0.0
44129757096479,1.232062E7,0.0
44129766862104,1.2309221E7,0.0
44129776627729,1.2307049E7,0.0
44129786362833,1.2301787E7,0.0
44129796128458,1.229777E7,0.0
44129805894083,1.2285531E7,0.0
44129815659708,1.2284639E7,0.0
44129825394812,1.2283579E7,0.0
44129835160437,1.2272672E7,0.0
44129844926062,1.2268271E7,0.0
44129854661166,1.2262262E7,0.0
44129864426791,1.2257897E7,0.0
44129874192416,1.2258681E7,0.0
44129883927521,1.2251523E7,0.0
44129893693146,1.2248635E7,0.0
44129903458771,1.2249714E7,0.0
44129913348927,1.2239612E7,0.0
44129923084031,1.2239796E7,0.0
44129932849656,1.2237787E7,0.0
44129942615281,1.2228562E7,0.0
44129952380906,1.2233567E7,0.0
44129962146531,1.2231686E7,0.0
44129971881635,1.2219943E7,0.0
44129981647260,1.2228653E7,0.0
44129991412885,1.2216287E7,0.0
44130001178510,1.2217238E7,0.0
44130010944135,1.2211521E7,0.0
44130020679239,1.2210281E7,0.0
44130030444864,1.2207484E7,0.0
44130040210489,1.2210189E7,0.0
44130049976114,1.2200654E7,0.0
44130059741739,1.2192508E7,0.0
44130069507364,1.2199522E7,0.0
44130079272989,1.2191156E7,0.0
44130089038614,1.2197218E7,0.0
44130098804239,1.2194133E7,0.0
44130108569864,1.2190424E7,0.0
44130118335489,1.2184106E7,0.0
44130128101114,1.2181182E7,0.0
44130137866739,1.2178845E7,0.0
44130147632364,1.2177037E7,0.0
44130157397989,1.217552E7,0.0
44130167163614,1.2173768E7,0.0
44130176929239,1.2172816E7,0.0
44130186694864,1.2171959E7,0.0
44130196460489,1.2173256E7,0.0
44130206226114,1.2171884E7,0.0
44130215991739,1.2165986E7,0.0
44130225757364,1.2161473E7,0.0
44130235522989,1.2166442E7,0.0
44130245288614,1.2159812E7,0.0
44130255054239,1.2161949E7,0.0
44130264819864,1.2158552E7,0.0
44130274585489,1.215718E7,0.0
44130284351114,1.2158168E7,0.0
44130294116739,1.2161637E7,0.0
44130303912885,1.2159721E7,0.0
44130313678510,1.2163026E7,0.0
44130323444135,1.2161529E7,0.0
44130333209760,1.2159392E7,0.0
44130342975385,1.2155392E7,0.0
44130352771531,1.2158989E7,0.0
44130362537156,1.216593E7,0.0
44130372302781,1.2160708E7,0.0
44130382068406,1.2159136E7,0.0
44130391834031,1.216058E7,0.0
44130401630177,1.2157804E7,0.0
44130411395802,1.2159409E7,0.0
44130421161427,1.2162477E7,0.0
44130430927052,1.2163666E7,0.0
44130440692677,1.2157856E7,0.0
44130450458302,1.2152907E7,0.0
44130460223927,1.2156068E7,0.0
44130469989552,1.2160469E7,0.0
44130479755177,1.2158808E7,0.0
44130489520802,1.2160489E7,0.0
44130499286427,1.2162313E7,0.0
44130509052052,1.2156087E7,0.0
44130518817677,1.2160525E7,0.0
44130528583302,1.2162917E7,0.0
44130538348927,1.2155119E7,0.0
44130548114552,1.2161457E7,0.0
44130557880177,1.2162041E7,0.0
44130567645802,1.2162333E7,0.0
44130577411427,1.2160288E7,0.0
44130587177052,1.2159337E7,0.0
44130596942677,1.2162917E7,0.0
44130606677781,1.2160797E7,0.0
44130616443406,1.2159409E7,0.0
44130626209031,1.2161913E7,0.0
44130635974656,1.216403E7,0.0
44130645740281,1.2165402E7,0.0
44130655505906,1.2161037E7,0.0
44130665271531,1.2156068E7,0.0
44130675037156,1.2156123E7,0.0
44130684802781,1.2150954E7,0.0
44130694568406,1.2149162E7,0.0
44130704334031,1.2145181E7,0.0
44130714099656,1.2134826E7,0.0
44130723865281,1.2133546E7,0.0
44130733630906,1.2124284E7,0.0
44130743396531,1.2117766E7,0.0
44130753162156,1.2109581E7,0.0
44130762927781,1.2105563E7,0.0
44130772693406,1.2105455E7,0.0
44130782459031,1.2101326E7,0.0
44130792255177,1.2095593E7,0.0
44130802020802,1.2097473E7,0.0
44130811786427,1.2093673E7,0.0
44130821552052,1.2088667E7,0.0
44130831317677,1.2082349E7,0.0
44130841113823,1.2079005E7,0.0
44130850879448,1.2078933E7,0.0
44130860645073,1.207674E7,0.0
44130870410698,1.2067954E7,0.0
44130880176323,1.2063281E7,0.0
44130889972469,1.2062913E7,0.0
44130899738094,1.2064121E7,0.0
44130909503719,1.2061269E7,0.0
44130919269344,1.2058292E7,0.0
44130929034969,1.2056851E7,0.0
44130938800594,1.2055607E7,0.0
44130948566219,1.2056303E7,0.0
44130958331844,1.2051754E7,0.0
44130968097469,1.2044228E7,0.0
44130977863094,1.2047369E7,0.0
44130987540750,1.2041928E7,0.0
44130997306375,1.2040539E7,0.0
44131007072000,1.2033962E7,0.0
44131016837625,1.2033417E7,0.0
44131026603250,1.2032101E7,0.0
44131036368875,1.2029453E7,0.0
44131046134500,1.203665E7,0.0
44131055900125,1.2029233E7,0.0
44131065665750,1.2018894E7,0.0
44131075431375,1.2022111E7,0.0
44131085227521,1.2023755E7,0.0
44131094993146,1.2020502E7,0.0
44131104758771,1.2017122E7,0.0
44131114524396,1.2008464E7,0.0
44131124290021,1.2015058E7,0.0
44131134055646,1.2013797E7,0.0
44131143821271,1.2006455E7,0.0
44131153586896,1.2009688E7,0.0
44131163352521,1.2013417E7,0.0
44131173118146,1.201064E7,0.0
44131182883771,1.2007863E7,0.0
44131192649396,1.2014109E7,0.0
44131202415021,1.2009288E7,0.0
44131212211166,1.200768E7,0.0
44131221976791,1.2002418E7,0.0
44131231772937,1.2007279E7,0.0
44131241538562,1.2001398E7,0.0
44131251304187,1.2009268E7,0.0
44131261100333,1.1999898E7,0.0
44131270865958,1.2002582E7,0.0
44131280662104,1.2006055E7,0.0
44131290427729,1.2004594E7,0.0
44131300193354,1.2002274E7,0.0
44131309958979,1.2002074E7,0.0
44131319724604,1.2001726E7,0.0
44131329520750,1.1999553E7,0.0
44131339286375,1.2005179E7,0.0
44131349052000,1.2005707E7,0.0
44131358817625,1.2002162E7,0.0
44131368583250,1.2001434E7,0.0
44131378379396,1.1997213E7,0.0
44131388145021,1.1996281E7,0.0
44131397910646,1.200704E7,0.0
44131407676271,1.1993488E7,0.0
44131417441896,1.199548E7,0.0
44131427207521,1.2000045E7,0.0
44131436973146,1.1999734E7,0.0
44131446738771,1.199338E7,0.0
44131456504396,1.1993252E7,0.0
44131466270021,1.2001122E7,0.0
44131476066166,1.200187E7,0.0
44131485831791,1.1997361E7,0.0
44131495597416,1.1997653E7,0.0
44131505363041,1.1994912E7,0.0
44131515128666,1.1996793E7,0.0
44131524894291,1.1995352E7,0.0
44131534659916,1.1997469E7,0.0
44131544425541,1.1998565E7,0.0
44131554191166,1.1997525E7,0.0
44131563956791,1.1994092E7,0.0
44131573752937,1.1994985E7,0.0
44131583518562,1.1998217E7,0.0
44131593284187,1.200061E7,0.0
44131603049812,1.1996153E7,0.0
44131612815437,1.1992648E7,0.0
44131622611531,1.1977232E7,0.0
44131632377156,1.1974692E7,0.0
44131642142781,1.1968173E7,0.0
44131651908406,1.1966893E7,0.0
44131661674031,1.1955094E7,0.0
44131671470177,1.1945668E7,0.0
44131681235802,1.19447E7,0.0
44131691001427,1.1937158E7,0.0
44131700767052,1.1658424E7,0.0
44131710532677,1.1659613E7,0.0
44131720328823,1.1650099E7,0.0
44131730094448,1.1643562E7,0.0
44131739860073,1.164383E7,0.0
44131749625698,1.1641898E7,0.0
44131759391323,1.1639398E7,0.0
44131769187469,1.1641486E7,0.0
44131778953094,1.1636388E7,0.0
44131788718719,1.1633652E7,0.0
44131798484344,1.1634395E7,0.0
44131808249969,1.1631197E7,0.0
44131818015594,1.1626703E7,0.0
44131827781219,1.1624977E7,0.0
44131837546844,1.1628222E7,0.0
44131847312469,1.1626988E7,0.0
44131857078094,1.1620545E7,0.0
44131866843719,1.1627938E7,0.0
44131876609344,1.1621319E7,0.0
44131886374969,1.1621478E7,0.0
44131896171114,1.1620292E7,0.0
44131905936739,1.1617615E7,0.0
44131915732885,1.1615035E7,0.0
44131925498510,1.1609844E7,0.0
44131935264135,1.1614324E7,0.0
44131945060281,1.1610968E7,0.0
44131954825906,1.1607483E7,0.0
44131964548771,1.1608655E7,0.0
44131974283875,1.1603305E7,0.0
44131984049500,1.1604605E7,0.0
44131993815125,1.1604383E7,0.0
44132003580750,1.1604619E7,0.0
44132013346375,1.1602212E7,0.0
44132023112000,1.1608672E7,0.0
44132032877625,1.1601217E7,0.0
44132042643250,1.1605142E7,0.0
44132052408875,1.1601436E7,0.0
44132062174500,1.1604445E7,0.0
44132071940125,1.1606107E7,0.0
44132081736271,1.1603367E7,0.0
44132091501896,1.1605885E7,0.0
44132101298041,1.1598998E7,0.0
44132111063666,1.1603717E7,0.0
44132120859812,1.1598921E7,0.0
44132130625437,1.1605569E7,0.0
44132140421583,1.1605046E7,0.0
44132150187208,1.1608974E7,0.0
44132159983354,1.1601817E7,0.0
44132169748979,1.1604539E7,0.0
44132179514604,1.1604477E7,0.0
44132189280229,1.1607944E7,0.0
44132199045854,1.1604206E7,0.0
44132208811479,1.1610382E7,0.0
44132218577104,1.1606661E7,0.0
44132228342729,1.1611221E7,0.0
44132238108354,1.1610777E7,0.0
44132247873979,1.1611394E7,0.0
44132257670125,1.1611426E7,0.0
44132267405229,1.1614006E7,0.0
44132277170854,1.1615416E7,0.0
44132286936479,1.1618548E7,0.0
44132296702104,1.1614799E7,0.0
44132306467729,1.1620101E7,0.0
44132316233354,1.1618503E7,0.0
44132325998979,1.1622365E7,0.0
44132335764604,1.162257E7,0.0
44132345530229,1.1622601E7,0.0
44132355295854,1.1629107E7,0.0
44132365061479,1.1623267E7,0.0
44132374827104,1.162143E7,0.0
44132384592729,1.1623645E7,0.0
44132394358354,1.1628919E7,0.0
44132404123979,1.1622317E7,0.0
44132413889604,1.1628635E7,0.0
44132423655229,1.1623836E7,0.0
44132433420854,1.1630233E7,0.0
44132443186479,1.163248E7,0.0
44132452952104,1.1632671E7,0.0
44132462717729,1.1634824E7,0.0
44132472483354,1.1636849E7,0.0
44132482248979,1.1632574E7,0.0
44132492014604,1.1633112E7,0.0
44132501780229,1.1623281E7,0.0
44132511545854,1.1620798E7,0.0
44132521311479,1.1618454E7,0.0
44132531077104,1.1617567E7,0.0
44132540842729,1.1611266E7,0.0
44132550638875,1.1605316E7,0.0
44132560404500,1.1595849E7,0.0
44132570170125,1.1587458E7,0.0
44132579935750,1.1589279E7,0.0
44132589701375,1.1586304E7,0.0
44132599467000,1.1575873E7,0.0
44132609232625,1.1575887E7,0.0
44132618998250,1.157079E7,0.0
44132628763875,1.1567687E7,0.0
44132638529500,1.1565963E7,0.0
44132648295125,1.1563841E7,0.0
44132658060750,1.1559725E7,0.0
44132667826375,1.1558872E7,0.0
44132677592000,1.1555706E7,0.0
44132687357625,1.1552096E7,0.0
44132697123250,1.1545605E7,0.0
44132706888875,1.1544971E7,0.0
44132716654500,1.154581E7,0.0
44132726420125,1.153739E7,0.0
44132736185750,1.153815E7,0.0
44132745951375,1.153712E7,0.0
44132755717000,1.1530993E7,0.0
44132765482625,1.1532768E7,0.0
44132775248250,1.1527924E7,0.0
44132785013875,1.1533275E7,0.0
44132794779500,1.1531579E7,0.0
44132804545125,1.1528493E7,0.0
44132814310750,1.1525469E7,0.0
44132824076375,1.1518392E7,0.0
44132833842000,1.1521749E7,0.0
44132843607625,1.1517539E7,0.0
44132853342729,1.1511096E7,0.0
44132863108354,1.1515101E7,0.0
44132872873979,1.1513787E7,0.0
44132882639604,1.1509498E7,0.0
44132892405229,1.1510954E7,0.0
44132902170854,1.1508864E7,0.0
44132911936479,1.1511651E7,0.0
44132921702104,1.1508499E7,0.0
44132931467729,1.1511904E7,0.0
44132941233354,1.1510382E7,0.0
44132950998979,1.1501613E7,0.0
44132960764604,1.1505444E7,0.0
44132970530229,1.1504162E7,0.0
44132980295854,1.1500663E7,0.0
44132990061479,1.1506918E7,0.0
44132999827104,1.15104E7,0.0
44133009592729,1.1506221E7,0.0
44133019358354,1.150524E7,0.0
44133029123979,1.1501724E7,0.0
44133039046635,1.1501866E7,0.0
44133048781739,1.1507535E7,0.0
44133058547364,1.1502549E7,0.0
44133068312989,1.1500174E7,0.0
44133078078614,1.1500947E7,0.0
44133087844239,1.1501092E7,0.0
44133097609864,1.1501218E7,0.0
44133107375489,1.1504605E7,0.0
44133117141114,1.1510954E7,0.0
44133126906739,1.1511079E7,0.0
44133136672364,1.1501502E7,0.0
44133146407469,1.1509671E7,0.0
44133156173094,1.1509134E7,0.0
44133165938719,1.1508406E7,0.0
44133175704344,1.1504987E7,0.0
44133185469969,1.1509148E7,0.0
44133195205073,1.1505937E7,0.0
44133204970698,1.150972E7,0.0
44133214736323,1.1512189E7,0.0
44133224501948,1.1519485E7,0.0
44133234267573,1.151773E7,0.0
44133244033198,1.1520563E7,0.0
44133253798823,1.1521527E7,0.0
44133263564448,1.1522574E7,0.0
44133273360594,1.1522019E7,0.0
44133283126219,1.1517997E7,0.0
44133292891844,1.1528573E7,0.0
44133302687989,1.1525265E7,0.0
44133312453614,1.1526229E7,0.0
44133322219239,1.1526721E7,0.0
44133332015385,1.1530584E7,0.0
44133341781010,1.1535268E7,0.0
44133351546635,1.1529856E7,0.0
44133361312260,1.1538261E7,0.0
44133371077885,1.1538736E7,0.0
44133380843510,1.1534097E7,0.0
44133390609135,1.1532117E7,0.0
44133400374760,1.1528112E7,0.0
44133410140385,1.1526419E7,0.0
44133419906010,1.1524283E7,0.0
44133429702156,1.1521939E7,0.0
44133439467781,1.1520705E7,0.0
44133449233406,1.1515622E7,0.0
44133458999031,1.1514183E7,0.0
44133468764656,1.1510306E7,0.0
44133478530281,1.1501582E7,0.0
44133488295906,1.1503971E7,0.0
44133498061531,1.1497989E7,0.0
44133507827156,1.149517E7,0.0
44133517592781,1.1490215E7,0.0
44133527388927,1.1483869E7,0.0
44133537154552,1.1488998E7,0.0
44133546920177,1.1483329E7,0.0
44133556685802,1.1476064E7,0.0
44133566451427,1.1480007E7,0.0
44133576217052,1.1481051E7,0.0
44133585982677,1.1480211E7,0.0
44133595748302,1.1473009E7,0.0
44133605513927,1.1472153E7,0.0
44133615279552,1.1472583E7,0.0
44133625045177,1.1472947E7,0.0
44133634810802,1.1469636E7,0.0
44133644576427,1.1470256E7,0.0
44133654342052,1.1469306E7,0.0
44133664107677,1.1470634E7,0.0
44133673873302,1.146443E7,0.0
44133683638927,1.1465252E7,0.0
44133693404552,1.1465807E7,0.0
44133703170177,1.1460915E7,0.0
44133712935802,1.1463321E7,0.0
44133722731948,1.1459364E7,0.0
44133732497573,1.1457797E7,0.0
44133742263198,1.1457655E7,0.0
44133752028823,1.1457686E7,0.0
44133761794448,1.1448709E7,0.0
44133771590541,1.1450641E7,0.0
44133781356166,1.1452635E7,0.0
44133791121791,1.1454899E7,0.0
44133800887416,1.1450339E7,0.0
44133810653041,1.1447111E7,0.0
44133820449187,1.1448584E7,0.0
44133830214812,1.1446303E7,0.0
44133839980437,1.1449944E7,0.0
44133849746062,1.1447537E7,0.0
44133859511687,1.1451687E7,0.0
44133869307833,1.1451164E7,0.0
44133879073458,1.1451101E7,0.0
44133888839083,1.1452763E7,0.0
44133898604708,1.1455644E7,0.0
44133908370333,1.1451244E7,0.0
44133920552416,1.1453363E7,0.0
44133930287521,1.1452714E7,0.0
44133940053146,1.1457243E7,0.0
44133949818771,1.1459791E7,0.0
44133959584396,1.146218E7,0.0
44133969350021,1.1464254E7,0.0
44133979115646,1.1465031E7,0.0
44133988881271,1.1468751E7,0.0
44133998646896,1.1476824E7,0.0
44134008412521,1.1481398E7,0.0
44134018178146,1.1475208E7,0.0
44134027943771,1.1478422E7,0.0
44134037709396,1.1480669E7,0.0
44134047475021,1.1484643E7,0.0
44134057240646,1.1488887E7,0.0
44134067006271,1.1485215E7,0.0
44134076771896,1.1489757E7,0.0
44134086537521,1.1487223E7,0.0
44134096303146,1.148216E7,0.0
44134106068771,1.1485215E7,0.0
44134115864916,1.1487795E7,0.0
44134125630541,1.1492101E7,0.0
44134135396166,1.1488364E7,0.0
44134145161791,1.1486845E7,0.0
44134154927416,1.1486006E7,0.0
44134164693041,1.1484344E7,0.0
44134174458666,1.1483363E7,0.0
44134184224291,1.1482348E7,0.0
44134193989916,1.148792E7,0.0
44134203755541,1.1487476E7,0.0
44134213551687,1.1489615E7,0.0
44134223317312,1.1496325E7,0.0
44134233082937,1.1501169E7,0.0
44134242848562,1.1495805E7,0.0
44134252614187,1.1498544E7,0.0
44134262379812,1.1497164E7,0.0
44134272145437,1.1492147E7,0.0
44134281911062,1.1482951E7,0.0
44134291676687,1.1488998E7,0.0
44134301442312,1.1477979E7,0.0
44134311238458,1.1473974E7,0.0
44134321004083,1.1468214E7,0.0
44134330769708,1.146416E7,0.0
44134340565854,1.1458525E7,0.0
44134350331479,1.1457891E7,0.0
44134360127625,1.1454867E7,0.0
44134369893250,1.1450055E7,0.0
44134379658875,1.144692E7,0.0
44134389455021,1.1446809E7,0.0
44134399220646,1.1445529E7,0.0
44134409016791,1.1444406E7,0.0
44134418782416,1.1444468E7,0.0
44134428548041,1.1448647E7,0.0
44134438313666,1.1441143E7,0.0
44134448079291,1.1439069E7,0.0
44134457844916,1.1441857E7,0.0
44134467610541,1.1444499E7,0.0
44134477376166,1.1435966E7,0.0
44134487141791,1.144461E7,0.0
44134496907416,1.1442329E7,0.0
44134506703562,1.1439926E7,0.0
44134516469187,1.1443723E7,0.0
44134526234812,1.1442838E7,0.0
44134536000437,1.1435477E7,0.0
44134545766062,1.143676E7,0.0
44134555531687,1.1433528E7,0.0
44134565297312,1.1434985E7,0.0
44134575062937,1.1430425E7,0.0
44134584828562,1.1432547E7,0.0
44134594594187,1.14366E7,0.0
44134604390333,1.1432786E7,0.0
44134614155958,1.1433449E7,0.0
44134623921583,1.1432644E7,0.0
44134633687208,1.1429398E7,0.0
44134643483354,1.1437755E7,0.0
44134653248979,1.1432533E7,0.0
44134663014604,1.1427037E7,0.0
44134672810750,1.1430189E7,0.0
44134682576375,1.1428795E7,0.0
44134692342000,1.1427436E7,0.0
44134702138146,1.1428195E7,0.0
44134711873250,1.1431486E7,0.0
44134721638875,1.1425598E7,0.0
44134731404500,1.1426167E7,0.0
44134741170125,1.1425456E7,0.0
44134750935750,1.1417952E7,0.0
44134760701375,1.1425376E7,0.0
44134770467000,1.1426056E7,0.0
44134780232625,1.1423652E7,0.0
44134789998250,1.1426406E7,0.0
44134799763875,1.1430126E7,0.0
44134809529500,1.1425726E7,0.0
44134819295125,1.1427734E7,0.0
44134829060750,1.1425328E7,0.0
44134838826375,1.1427498E7,0.0
44134848592000,1.1424617E7,0.0
44134858357625,1.1429398E7,0.0
44134868123250,1.143375E7,0.0
44134877888875,1.1433892E7,0.0
44134887654500,1.1433955E7,0.0
44134897420125,1.1439624E7,0.0
44134907185750,1.1434953E7,0.0
44134916951375,1.1432849E7,0.0
44134926717000,1.1438944E7,0.0
44134936482625,1.1431361E7,0.0
44134946248250,1.1436521E7,0.0
44134956013875,1.143839E7,0.0
44134965779500,1.1438247E7,0.0
44134975545125,1.1439132E7,0.0
44134985310750,1.1440921E7,0.0
44134994615073,1.1443629E7,0.0
44135004380698,1.1448109E7,0.0
44135014146323,1.1446289E7,0.0
44135023911948,1.1450595E7,0.0
44135033677573,1.1446826E7,0.0
44135043443198,1.1445006E7,0.0
44135053208823,1.1447332E7,0.0
44135062974448,1.1449912E7,0.0
44135072740073,1.145167E7,0.0
44135082505698,1.1444957E7,0.0
44135092271323,1.1446414E7,0.0
44135102036948,1.144624E7,0.0
44135111802573,1.1433688E7,0.0
44135121568198,1.1431313E7,0.0
44135131333823,1.1423795E7,0.0
44135141099448,1.1417002E7,0.0
44135150865073,1.1420231E7,0.0
44135160630698,1.1413504E7,0.0
44135170396323,1.1413077E7,0.0
44135180161948,1.1414405E7,0.0
44135189958094,1.1408392E7,0.0
44135199723719,1.1404245E7,0.0
44135209489344,1.1403483E7,0.0
44135219254969,1.1405289E7,0.0
44135229020594,1.1401949E7,0.0
44135238786219,1.1398055E7,0.0
44135248551844,1.1399512E7,0.0
44135258317469,1.1393811E7,0.0
44135268083094,1.1393163E7,0.0
44135277848719,1.1390836E7,0.0
44135287644812,1.1388905E7,0.0
44135297410437,1.1390614E7,0.0
44135307176062,1.1390011E7,0.0
44135316941687,1.1383062E7,0.0
44135326707312,1.1389269E7,0.0
44135336472937,1.1386072E7,0.0
44135346238562,1.1385548E7,0.0
44135356004187,1.1383079E7,0.0
44135365769812,1.1379123E7,0.0
44135375535437,1.1374643E7,0.0
44135385331583,1.1374532E7,0.0
44135395097208,1.1377143E7,0.0
44135404862833,1.1372979E7,0.0
44135414628458,1.1366647E7,0.0
44135424394083,1.1362659E7,0.0
44135434159708,1.1359539E7,0.0
44135443925333,1.1361106E7,0.0
44135453690958,1.1360964E7,0.0
44135463456583,1.1355613E7,0.0
44135473222208,1.1352399E7,0.0
44135482987833,1.1348127E7,0.0
44135492753458,1.1350738E7,0.0
44135502519083,1.1348949E7,0.0
44135512284708,1.134675E7,0.0
44135522050333,1.1342839E7,0.0
44135531815958,1.1343695E7,0.0
44135541581583,1.134477E7,0.0
44135551347208,1.1346466E7,0.0
44135561112833,1.1348127E7,0.0
44135570878458,1.1350929E7,0.0
44135580644083,1.1346321E7,0.0
44135590409708,1.1345405E7,0.0
44135600175333,1.1345499E7,0.0
44135609940958,1.1344645E7,0.0
44135619706583,1.1350533E7,0.0
44135629502729,1.1348838E7,0.0
44135639268354,1.1348807E7,0.0
44135649033979,1.1352465E7,0.0
44135658799604,1.1347239E7,0.0
44135668565229,1.1348602E7,0.0
44135678361375,1.1351688E7,0.0
44135688127000,1.135639E7,0.0
44135697892625,1.1357926E7,0.0
44135707658250,1.1357687E7,0.0
44135717423875,1.1361314E7,0.0
44135727189500,1.135837E7,0.0
44135736955125,1.1357656E7,0.0
44135746720750,1.1364272E7,0.0
44135756486375,1.136698E7,0.0
44135766252000,1.1366345E7,0.0
44135776017625,1.1367614E7,0.0
44135785783250,1.1371522E7,0.0
44135795548875,1.1377302E7,0.0
44135805314500,1.1374102E7,0.0
44135815080125,1.1377521E7,0.0
44135824845750,1.1378013E7,0.0
44135834611375,1.1384362E7,0.0
44135844377000,1.1389585E7,0.0
44135854142625,1.1386387E7,0.0
44135863908250,1.1389127E7,0.0
44135873704396,1.1389141E7,0.0
44135883439500,1.1390774E7,0.0
44135893205125,1.1393322E7,0.0
44135902970750,1.1393385E7,0.0
44135912736375,1.1385881E7,0.0
44135922502000,1.1392071E7,0.0
44135932267625,1.1387306E7,0.0
44135942033250,1.138422E7,0.0
44135951798875,1.1381814E7,0.0
44135961564500,1.1378377E7,0.0
44135971367416,1.1378963E7,0.0
44135981102521,1.1375007E7,0.0
44135990868146,1.137241E7,0.0
44136000633771,1.1365666E7,0.0
44136010399396,1.13669E7,0.0
44136020165021,1.1362153E7,0.0
44136029900125,1.1365461E7,0.0
44136039665750,1.1366425E7,0.0
44136049431375,1.13682E7,0.0
44136059197000,1.1359539E7,0.0
44136068962625,1.136448E7,0.0
44136078728250,1.136106E7,0.0
44136088493875,1.1364542E7,0.0
44136098259500,1.136087E7,0.0
44136108025125,1.1364036E7,0.0
44136117821271,1.1363734E7,0.0
44136127586896,1.1369719E7,0.0
44136137352521,1.1365208E7,0.0
44136147118146,1.1365919E7,0.0
44136156883771,1.1367361E7,0.0
44136166679916,1.1364778E7,0.0
44136176415021,1.1369466E7,0.0
44136186180646,1.1368072E7,0.0
44136195915750,1.1370621E7,0.0
44136205681375,1.1376051E7,0.0
44136215447000,1.136725E7,0.0
44136225182104,1.1368374E7,0.0
44136234947729,1.1364875E7,0.0
44136244682885,1.1366855E7,0.0
44136254448510,1.1370066E7,0.0
44136264214135,1.1368055E7,0.0
44136273979760,1.1369133E7,0.0
44136283745385,1.136147E7,0.0
44136293511010,1.136079E7,0.0
44136303307104,1.1361456E7,0.0
44136313072729,1.136459E7,0.0
44136322838354,1.1361043E7,0.0
44136332634500,1.1366141E7,0.0
44136342400125,1.1361976E7,0.0
44136352165750,1.1372125E7,0.0
44136361961896,1.1368246E7,0.0
44136371697000,1.1369227E7,0.0
44136381462625,1.1371588E7,0.0
44136391228250,1.137396E7,0.0
44136400993875,1.1370825E7,0.0
44136410759500,1.1371539E7,0.0
44136420494604,1.1372472E7,0.0
44136430260229,1.1374341E7,0.0
44136440025854,1.1377555E7,0.0
44136449791479,1.137879E7,0.0
44136459557104,1.1379976E7,0.0
44136469322729,1.1384979E7,0.0
44136479088354,1.1386387E7,0.0
44136488853979,1.13874E7,0.0
44136498619604,1.1383554E7,0.0
44136508415750,1.1390011E7,0.0
44136518181375,1.1391547E7,0.0
44136527947000,1.1398166E7,0.0
44136537712625,1.1399259E7,0.0
44136547478250,1.1399953E7,0.0
44136557274396,1.1407251E7,0.0
44136567040021,1.1405226E7,0.0
44136576805646,1.1408787E7,0.0
44136586571271,1.140988E7,0.0
44136596336896,1.1412633E7,0.0
44136606133041,1.1413046E7,0.0
44136615898666,1.1418601E7,0.0
44136625664291,1.1419977E7,0.0
44136635429916,1.1414835E7,0.0
44136645195541,1.1419471E7,0.0
44136654991687,1.1423192E7,0.0
44136664757312,1.1425945E7,0.0
44136674522937,1.1424315E7,0.0
44136684288562,1.142764E7,0.0
44136694054187,1.1435175E7,0.0
44136703819812,1.1438216E7,0.0
44136713585437,1.1433955E7,0.0
44136723351062,1.1441018E7,0.0
44136733116687,1.144192E7,0.0
44136742882312,1.1448345E7,0.0
44136752647937,1.144727E7,0.0
44136762383041,1.1450894E7,0.0
44136772148666,1.1458682E7,0.0
44136781914291,1.1453761E7,0.0
44136791679916,1.1463574E7,0.0
44136801445541,1.1471633E7,0.0
44136811211166,1.1472517E7,0.0
44136820976791,1.1468908E7,0.0
44136830742416,1.1473467E7,0.0
44136840508041,1.1471442E7,0.0
44136850273666,1.1474417E7,0.0
44136860008771,1.1470745E7,0.0
44136869774396,1.1468689E7,0.0
44136879540021,1.1471379E7,0.0
44136889305646,1.1469019E7,0.0
44136899071271,1.1471712E7,0.0
44136908836896,1.1463606E7,0.0
44136918602521,1.1465474E7,0.0
44136928368146,1.1464698E7,0.0
44136938133771,1.1466914E7,0.0
44136947899396,1.1463938E7,0.0
44136957665021,1.1467042E7,0.0
44136967430646,1.1468339E7,0.0
44136977196271,1.145976E7,0.0
44136986961896,1.1462354E7,0.0
44136996727521,1.1460297E7,0.0
44137006493146,1.1462673E7,0.0
44137016258771,1.1457496E7,0.0
44137026024396,1.1462829E7,0.0
44137035790021,1.1458224E7,0.0
44137044326583,1.146123E7,0.0
44137054092208,1.1453428E7,0.0
44137063857833,1.1462499E7,0.0
44137073623458,1.145968E7,0.0
44137083389083,1.1455658E7,0.0
44137093154708,1.1458255E7,0.0
44137102920333,1.1460425E7,0.0
44137112685958,1.1460724E7,0.0
44137122451583,1.1459475E7,0.0
44137132217208,1.1461501E7,0.0
44137141982833,1.146484E7,0.0
44137151748458,1.146443E7,0.0
44137161514083,1.1464903E7,0.0
44137171279708,1.1459379E7,0.0
44137181045333,1.1461816E7,0.0
44137190810958,1.1458889E7,0.0
44137200576583,1.1463241E7,0.0
44137210342208,1.1461913E7,0.0
44137220107833,1.1467136E7,0.0
44137229873458,1.1466834E7,0.0
44137239639083,1.1470984E7,0.0
44137249374187,1.146674E7,0.0
44137259139812,1.1465363E7,0.0
44137268905437,1.1467232E7,0.0
44137278640541,1.1471647E7,0.0
44137288406166,1.146829E7,0.0
44137298171791,1.1469368E7,0.0
44137307906948,1.1468782E7,0.0
44137317672573,1.1471411E7,0.0
44137327438198,1.147293E7,0.0
44137337203823,1.1474702E7,0.0
44137346938927,1.1476002E7,0.0
44137356704552,1.1480038E7,0.0
44137366470177,1.1479324E7,0.0
44137376235802,1.1482001E7,0.0
44137386001427,1.1484802E7,0.0
44137395767052,1.1481651E7,0.0
44137405532677,1.1484928E7,0.0
44137415298302,1.1489962E7,0.0
44137425063927,1.1489393E7,0.0
44137434829552,1.1490898E7,0.0
44137444595177,1.1493287E7,0.0
44137454360802,1.1496991E7,0.0
44137464126427,1.1499064E7,0.0
44137473892052,1.1497119E7,0.0
44137483688198,1.1499414E7,0.0
44137493453823,1.1500299E7,0.0
44137503219448,1.1501391E7,0.0
44137512985073,1.1503641E7,0.0
44137522750698,1.150524E7,0.0
44137532546791,1.1513565E7,0.0
44137542312416,1.1508974E7,0.0
44137552078041,1.150929E7,0.0
44137561843666,1.1514831E7,0.0
44137571609291,1.1523205E7,0.0
44137581374916,1.1520213E7,0.0
44137591140541,1.1514578E7,0.0
44137600906166,1.1518964E7,0.0
44137610671791,1.1525993E7,0.0
44137620437416,1.1526624E7,0.0
44137630203041,1.152368E7,0.0
44137639968666,1.1532831E7,0.0
44137649734291,1.1532561E7,0.0
44137659499916,1.1537928E7,0.0
44137669265541,1.1541694E7,0.0
44137679031166,1.1534714E7,0.0
44137688796791,1.1542107E7,0.0
44137698562416,1.1543594E7,0.0
44137708328041,1.1545002E7,0.0
44137718093666,1.1544055E7,0.0
44137727859291,1.1554978E7,0.0
44137737624916,1.1548407E7,0.0
44137747390541,1.1552824E7,0.0
44137757156166,1.1558983E7,0.0
44137766921791,1.1564364E7,0.0
44137776687416,1.1563446E7,0.0
44137786453041,1.1563952E7,0.0
44137796218666,1.1569413E7,0.0
44137805984291,1.1574781E7,0.0
44137815749916,1.1573071E7,0.0
44137825515541,1.1580034E7,0.0
44137835281166,1.1583328E7,0.0
44137845046791,1.1578786E7,0.0
44137854812416,1.1587032E7,0.0
44137864578041,1.1582427E7,0.0
44137874343666,1.158138E7,0.0
44137884109291,1.1585291E7,0.0
44137893874916,1.1578675E7,0.0
44137903640541,1.1582284E7,0.0
44137913406166,1.1581397E7,0.0
44137923502312,1.1580145E7,0.0
44137933237416,1.1576157E7,0.0
44137943003041,1.1578897E7,0.0
44137952768666,1.1574195E7,0.0
44137962534291,1.1574923E7,0.0
44137972299916,1.1573845E7,0.0
44137982035073,1.1568005E7,0.0
