54252301509987,0.09384946,0.0
54252311214570,0.09391493,0.0
54252320949674,0.093909174,0.0
54252330654258,0.09389076,0.0
54252340358893,0.09392558,0.0
54252350093997,0.09390987,0.0
54252359798581,0.09393082,0.0
54252369533685,0.09397813,0.0
54252379268789,0.09397936,0.0
54252389003893,0.0940402,0.0
54252398738997,0.09403567,0.0
54252408443581,0.09403374,0.0
54252418178685,0.09405993,0.0
54252427913789,0.09406813,0.0
54252437648893,0.0940815,0.0
54252447383997,0.09410183,0.0
54252457088633,0.094088316,0.0
54252466823737,0.094043,0.0
54252476528320,0.0940904,0.0
54252486263424,0.09408979,0.0
54252495968008,0.09408569,0.0
54252505703112,0.09408351,0.0
54252515407695,0.09413029,0.0
54252525142799,0.09412627,0.0
54252534847383,0.09414967,0.0
54252544582487,0.09413937,0.0
54252554287070,0.09420808,0.0
54252564022226,0.094213575,0.0
54252573726810,0.094200656,0.0
54252583461914,0.09427808,0.0
54252593166497,0.09430078,0.0
54252602901601,0.09433885,0.0
54252612606185,0.09435414,0.0
54252622341289,0.09441916,0.0
54252632045872,0.0944154,0.0
54252641934414,0.09448306,0.0
54252651638997,0.09452304,0.0
54252661374101,0.094560154,0.0
54252671078737,0.0945969,0.0
54252680813841,0.094657555,0.0
54252690548945,0.09470244,0.0
54252700253528,0.09471912,0.0
54252709988633,0.09479769,0.0
54252719693216,0.09479804,0.0
54252729428320,0.09490061,0.0
54252739163424,0.09491143,0.0
54252748868008,0.094971575,0.0
54252758603112,0.094988346,0.0
54252768307695,0.09506491,0.0
54252778042851,0.095117725,0.0
54252787747435,0.09514592,0.0
54252797482539,0.0951714,0.0
54252807187122,0.09522099,0.0
54252816922226,0.09523697,0.0
54252826626810,0.095297284,0.0
54252836361914,0.09532417,0.0
54252846066497,0.09537018,0.0
54252855771081,0.09541312,0.0
54252865506185,0.09536983,0.0
54252875210820,0.09536677,0.0
54252884945924,0.09530262,0.0
54252894650508,0.09521471,0.0
54252904355091,0.09513029,0.0
54252914090195,0.09503924,0.0
54252923794778,0.094951324,0.0
54252933529883,0.09485583,0.0
54252943234466,0.09475254,0.0
54252952969570,0.094662294,0.0
54252962674153,0.09462564,0.0
54252972409258,0.09454985,0.0
54252982113893,0.094481066,0.0
54252991848997,0.09445592,0.0
54253001553581,0.09442666,0.0
54253011288685,0.094382405,0.0
54253020993268,0.09436862,0.0
54253030728372,0.09434226,0.0
54253040432956,0.0943777,0.0
54253050168060,0.09432191,0.0
54253059872643,0.09431274,0.0
54253069607747,0.09431817,0.0
54253079312383,0.09434164,0.0
54253089047487,0.094351515,0.0
54253098752070,0.0944065,0.0
54253108487174,0.09436574,0.0
54253118191758,0.09435325,0.0
54253127926862,0.09438974,0.0
54253137631445,0.09442694,0.0
54253147336028,0.094411135,0.0
54253157071133,0.094465956,0.0
54253166775716,0.094431296,0.0
54253176510820,0.09446133,0.0
54253186215456,0.09444806,0.0
54253195920039,0.09447485,0.0
54253205655143,0.0944773,0.0
54253215359726,0.09441681,0.0
54253225094831,0.094483934,0.0
54253234799414,0.09441436,0.0
54253244534518,0.09446158,0.0
54253254239101,0.09444684,0.0
54253263974206,0.09445984,0.0
54253273678789,0.094479054,0.0
54253283413945,0.09450777,0.0
54253293118528,0.094491616,0.0
54253302853633,0.09449074,0.0
54253312558216,0.09449275,0.0
54253322293320,0.09450122,0.0
54253331997903,0.09455639,0.0
54253341733008,0.09451571,0.0
54253351437591,0.09455002,0.0
54253361172695,0.09460336,0.0
54253370877278,0.09462326,0.0
54253380612383,0.09466342,0.0
54253390317018,0.09465112,0.0
54253400052122,0.09471092,0.0
54253409756706,0.094781436,0.0
54253419491810,0.094790526,0.0
54253429196393,0.09479429,0.0
54253438931497,0.09484054,0.0
54253448636081,0.09484902,0.0
54253458371185,0.094931245,0.0
54253468075768,0.094938844,0.0
54253477810872,0.09496966,0.0
54253487515508,0.09501339,0.0
54253497250612,0.09504081,0.0
54253506955195,0.09505616,0.0
54253516690299,0.0951453,0.0
54253526394883,0.09516067,0.0
54253536129987,0.09519,0.0
54253545834570,0.09521462,0.0
54253555569674,0.09523959,0.0
54253565274258,0.09526613,0.0
54253575009362,0.09531388,0.0
54253584713945,0.09534931,0.0
54253594449101,0.09538423,0.0
54253604153685,0.0954264,0.0
54253613888789,0.09549983,0.0
54253623593372,0.09553151,0.0
54253633328476,0.09553894,0.0
54253643033060,0.09549371,0.0
54253652768164,0.09548934,0.0
54253662472747,0.095508985,0.0
54253672207851,0.09542832,0.0
54253681912435,0.09531535,0.0
54253691647539,0.09523681,0.0
54253701352174,0.09510558,0.0
54253711323424,0.09503863,0.0
54253721028008,0.09493325,0.0
54253730763112,0.094843164,0.0
54253740467695,0.0947433,0.0
54253750202799,0.09464857,0.0
54253759907383,0.09459725,0.0
54253769642487,0.094513975,0.0
54253779347070,0.09447573,0.0
54253789082174,0.09444003,0.0
54253798786810,0.09441158,0.0
54253808521914,0.0944045,0.0
54253818226497,0.09439838,0.0
54253827931081,0.09437367,0.0
54253837635664,0.094370976,0.0
54253847340247,0.09435134,0.0
54253857044831,0.09436373,0.0
54253866749414,0.09435998,0.0
54253876453997,0.09433876,0.0
54253886158633,0.09440038,0.0
54253895863216,0.09438582,0.0
54253905598320,0.0943867,0.0
54253915302903,0.09438749,0.0
54253925038008,0.094351515,0.0
54253934773112,0.09444125,0.0
54253944477695,0.094430864,0.0
54253954212799,0.09444221,0.0
54253963947903,0.09448148,0.0
54253973652487,0.09445399,0.0
54253983387591,0.09441209,0.0
54253993122747,0.09445408,0.0
54254002857851,0.09445757,0.0
54254012562435,0.09442946,0.0
54254022267018,0.09440597,0.0
54254032002122,0.09444833,0.0
54254041706706,0.094395146,0.0
54254051441810,0.09440712,0.0
54254061146393,0.09442475,0.0
54254070850976,0.094420835,0.0
54254080586081,0.0944175,0.0
54254090290716,0.09443767,0.0
54254100025820,0.09443513,0.0
54254109730403,0.0945006,0.0
54254119434987,0.09448883,0.0
54254129139570,0.094513886,0.0
54254138874674,0.0945178,0.0
54254148579258,0.09456241,0.0
54254158283841,0.094543114,0.0
54254168018945,0.09459089,0.0
54254177723528,0.09461619,0.0
54254187428164,0.09465085,0.0
54254197163268,0.09467687,0.0
54254206867851,0.094715714,0.0
54254216572435,0.09472549,0.0
54254226277018,0.09475534,0.0
54254236012122,0.09477865,0.0
54254245716706,0.09477803,0.0
54254255421289,0.09486063,0.0
54254265156393,0.09485756,0.0
54254274861028,0.09490079,0.0
54254284565612,0.094936654,0.0
54254294300716,0.094959356,0.0
54254304005299,0.09501114,0.0
54254313709883,0.09502509,0.0
54254323414466,0.095038444,0.0
54254333119049,0.09505626,0.0
54254342823633,0.095081665,0.0
54254352528216,0.09517167,0.0
54254362232851,0.095163204,0.0
54254371937435,0.095198646,0.0
54254381642018,0.09519838,0.0
54254391377122,0.09523102,0.0
54254401081706,0.09520005,0.0
54254410786289,0.09510148,0.0
54254420490872,0.095081925,0.0
54254430225976,0.09495832,0.0
54254439930560,0.09489537,0.0
54254449635195,0.0947866,0.0
54254459370299,0.09462999,0.0
54254469074883,0.0945488,0.0
54254478779466,0.09441444,0.0
54254488514570,0.09433684,0.0
54254498219153,0.09424754,0.0
54254507923737,0.09421113,0.0
54254517628320,0.09414426,0.0
54254527332903,0.09404956,0.0
54254537037539,0.09406875,0.0
54254546742122,0.0940271,0.0
54254556446706,0.09398398,0.0
54254566151289,0.0940045,0.0
54254575855872,0.09401358,0.0
54254585590976,0.09396564,0.0
54254595295560,0.09399656,0.0
54254605000143,0.09400702,0.0
54254614704778,0.09401375,0.0
54254624439883,0.09402659,0.0
54254634144466,0.094057314,0.0
54254643849049,0.094009474,0.0
54254653584153,0.094058104,0.0
54254663288737,0.09408236,0.0
54254672993320,0.09408019,0.0
54254682573581,0.09408734,0.0
54254692278164,0.09411353,0.0
54254701982747,0.09412688,0.0
54254711687383,0.09414174,0.0
54254721391966,0.09414662,0.0
54254731096549,0.0941763,0.0
54254740801133,0.09414567,0.0
54254750505716,0.09412348,0.0
54254760210299,0.09412794,0.0
54254769914883,0.09409816,0.0
54254779649987,0.094132215,0.0
54254789354622,0.09413273,0.0
54254799059206,0.094164245,0.0
54254808763789,0.09417167,0.0
54254818468372,0.09415011,0.0
54254828172956,0.09416241,0.0
54254837877539,0.09417237,0.0
54254847582122,0.09419515,0.0
54254857286706,0.09420991,0.0
54254866991341,0.094248846,0.0
54254876726445,0.094273545,0.0
54254886431028,0.09429407,0.0
54254896135612,0.09428709,0.0
54254905840195,0.09429808,0.0
54254915544778,0.09436233,0.0
54254925279883,0.09436748,0.0
54254934984466,0.094404325,0.0
54254944689049,0.09442921,0.0
54254954393685,0.09450096,0.0
54254964098268,0.094532736,0.0
54254973833372,0.094525404,0.0
54254983537956,0.09457447,0.0
54254993242539,0.094606586,0.0
54255002947122,0.09463985,0.0
54255012651706,0.094700515,0.0
54255022356289,0.09468804,0.0
54255032060872,0.09472008,0.0
54255041765508,0.094782665,0.0
54255051470091,0.09478223,0.0
54255061174674,0.09483147,0.0
54255070879258,0.09491579,0.0
54255080583841,0.09487826,0.0
54255090288424,0.09493263,0.0
54255099993008,0.09495264,0.0
54255109697591,0.09497874,0.0
54255119432747,0.09503095,0.0
54255129137331,0.09504806,0.0
54255138841914,0.09504561,0.0
54255148546497,0.0950361,0.0
54255158251081,0.09501244,0.0
54255167986185,0.09491143,0.0
54255177690768,0.094850406,0.0
54255187395351,0.09471729,0.0
54255197099935,0.0945929,0.0
54255206804570,0.094439074,0.0
54255216509153,0.094330385,0.0
54255226213737,0.09418547,0.0
54255235918320,0.09410962,0.0
54255245622903,0.09399235,0.0
54255255327487,0.09386736,0.0
54255265062591,0.09379498,0.0
54255274767174,0.093745925,0.0
54255284471810,0.09366745,0.0
54255294176393,0.09365095,0.0
54255303880976,0.093605034,0.0
54255313616081,0.09359333,0.0
54255323320664,0.09353056,0.0
54255333025247,0.093533784,0.0
54255342729831,0.09350507,0.0
54255352434414,0.09347059,0.0
54255362169518,0.09347617,0.0
54255371874153,0.0935124,0.0
54255381578737,0.09347242,0.0
54255391283320,0.09346589,0.0
54255400987903,0.09346273,0.0
54255410723008,0.09350263,0.0
54255420427591,0.093503416,0.0
54255430132174,0.09347871,0.0
54255439836758,0.09350411,0.0
54255449541341,0.09351328,0.0
54255459276497,0.093478,0.0
54255468981081,0.09353946,0.0
54255478685664,0.09349756,0.0
54255488390247,0.09349722,0.0
54255498094831,0.09345296,0.0
54255507799414,0.09347731,0.0
54255517503997,0.09350026,0.0
54255527208581,0.09347276,0.0
54255536913216,0.09347661,0.0
54255546617799,0.093489096,0.0
54255556352903,0.0934601,0.0
54255566057487,0.09348141,0.0
54255575762070,0.09345915,0.0
54255585466653,0.09347286,0.0
54255595201758,0.09350026,0.0
54255604906341,0.09348325,0.0
54255614610924,0.093511865,0.0
54255624346028,0.09350411,0.0
54255634050664,0.093531355,0.0
54255643755247,0.09353824,0.0
54255653490351,0.093575425,0.0
54255663194935,0.0936018,0.0
54255672899518,0.09365242,0.0
54255682604101,0.09362134,0.0
54255692339206,0.093656965,0.0
54255702043789,0.09370149,0.0
54255711748372,0.09371407,0.0
54255721483528,0.09373528,0.0
54255731188112,0.09379193,0.0
54255740892695,0.09383243,0.0
54255750736914,0.09387757,0.0
54255760441497,0.093900606,0.0
54255770176601,0.093967915,0.0
54255779881185,0.093976825,0.0
54255789616289,0.093970366,0.0
54255799320872,0.094063066,0.0
54255809055976,0.094045095,0.0
54255818760612,0.09409808,0.0
54255828495716,0.094145566,0.0
54255838200299,0.094144784,0.0
54255847935403,0.09422169,0.0
54255857639987,0.094242916,0.0
54255867344570,0.09430296,0.0
54255877049153,0.094324455,0.0
54255886784258,0.09431973,0.0
54255896488841,0.09435256,0.0
54255906193424,0.09435414,0.0
54255915928581,0.09433239,0.0
54255925633164,0.09425582,0.0
54255935337747,0.09414233,0.0
54255945072851,0.094004765,0.0
54255954777435,0.093893975,0.0
54255964482018,0.09376085,0.0
54255974217122,0.093596995,0.0
54255983921706,0.09350411,0.0
54255993656810,0.09337753,0.0
54256003361393,0.09330716,0.0
54256013066028,0.09319962,0.0
54256022801133,0.09308246,0.0
54256032505716,0.09304597,0.0
54256042240820,0.09299987,0.0
54256051945403,0.09291835,0.0
54256061680508,0.092912845,0.0
54256071385091,0.09285244,0.0
54256081120195,0.09283201,0.0
54256090824778,0.092838995,0.0
54256100559883,0.092818476,0.0
54256110264518,0.09282057,0.0
54256119999622,0.09283297,0.0
54256129704206,0.092812106,0.0
54256139439310,0.092818655,0.0
54256149143893,0.09284353,0.0
54256158848476,0.09280905,0.0
54256168583581,0.09281472,0.0
54256178288164,0.092844926,0.0
54256188023268,0.09286073,0.0
54256197727851,0.09286884,0.0
54256207432487,0.09290175,0.0
54256217167591,0.09287078,0.0
54256226872174,0.092901066,0.0
54256236607278,0.092870586,0.0
54256246311862,0.09291363,0.0
54256256016445,0.092879154,0.0
54256265751549,0.09289303,0.0
54256275456133,0.09287374,0.0
54256285191237,0.092883,0.0
54256294895820,0.092871636,0.0
54256304600456,0.09283157,0.0
54256314335560,0.092844926,0.0
54256324040143,0.09285915,0.0
54256333775247,0.09286815,0.0
54256343479831,0.09292044,0.0
54256353184414,0.09291345,0.0
54256362888997,0.09292681,0.0
54256372593581,0.092943646,0.0
54256382328685,0.09295981,0.0
54256392033268,0.09298958,0.0
54256401737903,0.09303121,0.0
54256411442487,0.09300432,0.0
54256421147070,0.09301875,0.0
54256430882174,0.09307296,0.0
54256440586758,0.09308464,0.0
54256450291341,0.09312979,0.0
54256460026445,0.09312908,0.0
54256469731028,0.09321062,0.0
54256479466133,0.0932622,0.0
54256489170768,0.093277216,0.0
54256498875351,0.093278274,0.0
54256508610456,0.093345225,0.0
54256518315039,0.09336356,0.0
54256528050143,0.09340861,0.0
54256537754726,0.09348011,0.0
54256547459310,0.09350097,0.0
54256557194414,0.093510136,0.0
54256566898997,0.09355981,0.0
54256576634101,0.093619086,0.0
54256586338737,0.0936698,0.0
54256596043320,0.0936663,0.0
54256605778424,0.093737975,0.0
54256615483008,0.093757436,0.0
54256625218112,0.09380493,0.0
54256634922695,0.09388831,0.0
54256644657799,0.09388577,0.0
54256654362383,0.09394838,0.0
54256664097487,0.09396042,0.0
54256673802070,0.09398878,0.0
54256683537174,0.093964174,0.0
54256693241810,0.09394095,0.0
54256702976914,0.09384327,0.0
54256712681497,0.09373711,0.0
54256722691549,0.093643874,0.0
54256732396133,0.09353388,0.0
54256742100716,0.093433216,0.0
54256751835820,0.093237676,0.0
54256761540403,0.0931998,0.0
54256771275508,0.093079835,0.0
54256780980091,0.09302284,0.0
54256790684726,0.09294146,0.0
54256800419831,0.092898786,0.0
54256810124414,0.09288892,0.0
54256819859518,0.09285322,0.0
54256829564101,0.092808,0.0
54256839268685,0.09276417,0.0
54256848973268,0.092768446,0.0
54256858708372,0.09276034,0.0
54256868412956,0.09274445,0.0
54256878117591,0.092795,0.0
54256887852695,0.09278278,0.0
54256897557278,0.09279142,0.0
54256907261862,0.092789315,0.0
54256916996966,0.0928266,0.0
54256926701549,0.09285802,0.0
54256936406133,0.09289688,0.0
54256946110716,0.09289399,0.0
54256955845820,0.0929206,0.0
54256965550403,0.09296801,0.0
54256975255039,0.09297832,0.0
54256984990143,0.09297884,0.0
54256994694726,0.092986256,0.0
54257004399310,0.09302572,0.0
54257014134414,0.092995256,0.0
54257023838997,0.093033224,0.0
54257033543581,0.09300851,0.0
54257043248164,0.09302511,0.0
54257052983268,0.09303376,0.0
54257062687903,0.0930101,0.0
54257072392487,0.0930513,0.0
54257082127591,0.093048595,0.0
54257091832174,0.09303515,0.0
54257101536758,0.09303742,0.0
54257111271862,0.09310795,0.0
54257120976445,0.09311284,0.0
54257130681028,0.09311512,0.0
54257140385612,0.0931317,0.0
54257150120716,0.09317404,0.0
54257159825351,0.0932093,0.0
54257169529935,0.09324282,0.0
54257179265039,0.09324771,0.0
54257188969622,0.09327575,0.0
54257198674206,0.09331921,0.0
54257208409310,0.09338905,0.0
54257218113893,0.093412355,0.0
54257227818476,0.09340912,0.0
54257237523060,0.09345068,0.0
54257247227695,0.09353309,0.0
54257256962799,0.09358033,0.0
54257266667383,0.09361106,0.0
54257276371966,0.093668066,0.0
54257286076549,0.09366351,0.0
54257295781133,0.0937399,0.0
54257305516237,0.093781635,0.0
54257315220820,0.09382982,0.0
54257324925403,0.093888134,0.0
54257334660560,0.09392837,0.0
54257344365143,0.09397368,0.0
54257354100247,0.093997866,0.0
54257363804831,0.094044134,0.0
54257373509414,0.09412357,0.0
54257383244518,0.09414635,0.0
54257392949101,0.094205804,0.0
54257402684206,0.09416189,0.0
54257412388789,0.09413701,0.0
54257422093372,0.09408823,0.0
54257431798008,0.09397805,0.0
54257441533112,0.09389799,0.0
54257451237695,0.0937935,0.0
54257460942278,0.09370175,0.0
54257470677383,0.09357421,0.0
54257480381966,0.093483515,0.0
54257490086549,0.09342876,0.0
54257499821653,0.093333974,0.0
54257509526237,0.09329703,0.0
54257519230872,0.09320694,0.0
54257528935456,0.0931956,0.0
54257538640039,0.0931805,0.0
54257548375143,0.093158066,0.0
54257558079726,0.09314786,0.0
54257567784310,0.093141735,0.0
54257577488893,0.09318818,0.0
54257587193476,0.09317342,0.0
54257596928581,0.09318582,0.0
54257606633216,0.09322389,0.0
54257616337799,0.09322222,0.0
54257626042383,0.09325427,0.0
54257635746966,0.093283065,0.0
54257645451549,0.093309514,0.0
54257655156133,0.09329014,0.0
54257664860716,0.09339245,0.0
54257674565299,0.093398474,0.0
54257684269935,0.093427196,0.0
54257694005039,0.09342301,0.0
54257703709622,0.093461156,0.0
54257713444726,0.093480356,0.0
54257723149310,0.093483336,0.0
54257732884414,0.09349617,0.0
54257742588997,0.093523055,0.0
54257752324101,0.093496606,0.0
54257762028685,0.09350018,0.0
54257771763789,0.09347469,0.0
54257781468372,0.093507335,0.0
54257791389831,0.09356373,0.0
54257801094414,0.093543395,0.0
54257810798997,0.09356451,0.0
54257820503581,0.09359289,0.0
54257830208164,0.09362134,0.0
54257839943268,0.09360564,0.0
54257849647851,0.0936142,0.0
54257859352435,0.09366143,0.0
54257869057018,0.09369686,0.0
54257878761653,0.093760595,0.0
54257888496758,0.093756236,0.0
54257898201341,0.093753606,0.0
54257907905924,0.09381315,0.0
54257917610508,0.093835056,0.0
54257927315091,0.09387399,0.0
54257937019674,0.093902715,0.0
54257946724258,0.09398285,0.0
54257956428893,0.09402771,0.0
54257966133476,0.09405479,0.0
54257975838060,0.09409495,0.0
54257985542643,0.09414907,0.0
54257995247226,0.0941997,0.0
54258004982331,0.09421654,0.0
54258014686914,0.094288655,0.0
54258024422018,0.09433239,0.0
54258034126601,0.094398744,0.0
54258043861706,0.094421074,0.0
54258053566341,0.094458535,0.0
54258063301445,0.09448629,0.0
54258073006028,0.09451257,0.0
54258082741133,0.094561115,0.0
54258092445716,0.094592534,0.0
54258102150299,0.09458729,0.0
54258111854883,0.094484985,0.0
54258121589987,0.09441401,0.0
54258131294570,0.09431746,0.0
54258140999206,0.09420257,0.0
54258150734310,0.09414907,0.0
54258160438893,0.09404335,0.0
54258170143476,0.09392201,0.0
54258179878581,0.093843706,0.0
54258189583164,0.0937412,0.0
54258199287747,0.0936877,0.0
54258208992331,0.09363906,0.0
54258218727435,0.09361568,0.0
54258228432018,0.093602754,0.0
54258238136653,0.093540594,0.0
54258247871758,0.09352375,0.0
54258257576341,0.09356557,0.0
54258267280924,0.09356767,0.0
54258277016028,0.093597695,0.0
54258286720612,0.09359078,0.0
54258296425195,0.09363383,0.0
54258306160299,0.09363243,0.0
54258315864883,0.09366796,0.0
54258325599987,0.09367451,0.0
54258335304622,0.09366831,0.0
54258345009206,0.093658105,0.0
54258354744310,0.093663946,0.0
54258364448893,0.09372306,0.0
54258374183997,0.09375308,0.0
54258383888581,0.09375536,0.0
54258393593164,0.093813054,0.0
54258403297747,0.09383149,0.0
54258413032851,0.09381549,0.0
54258422737487,0.093825094,0.0
54258432442070,0.093840815,0.0
54258442177174,0.0938512,0.0
54258451881758,0.09383968,0.0
54258461586341,0.0938341,0.0
54258471321445,0.093854524,0.0
54258481026028,0.09385881,0.0
54258490730612,0.093852,0.0
54258500435195,0.09391031,0.0
54258510170299,0.093903676,0.0
54258519874935,0.09396468,0.0
54258529579518,0.09393073,0.0
54258539314622,0.09394661,0.0
54258549019206,0.09402179,0.0
54258558723789,0.09403427,0.0
54258568458893,0.0940546,0.0
54258578163476,0.09404431,0.0
54258587868060,0.094104186,0.0
54258597572643,0.09413641,0.0
54258607277278,0.09419576,0.0
54258616981862,0.09422928,0.0
54258626686445,0.09424894,0.0
54258636391028,0.09428028,0.0
54258646095612,0.094330385,0.0
54258655800195,0.09433709,0.0
54258665535299,0.09440842,0.0
54258675239883,0.09444544,0.0
54258684944518,0.094471715,0.0
54258694649101,0.09451841,0.0
54258704384206,0.094533786,0.0
54258714088789,0.094602324,0.0
54258723793372,0.094686456,0.0
54258733528476,0.09471939,0.0
54258743233060,0.09472279,0.0
54258752937643,0.094809376,0.0
54258762672747,0.09478695,0.0
54258772377331,0.09472541,0.0
54258782112487,0.09468891,0.0
54258791817070,0.09458041,0.0
54258801552174,0.09448438,0.0
54258811287278,0.09440161,0.0
54258820991862,0.094269186,0.0
54258830726966,0.09414041,0.0
54258840431549,0.09398329,0.0
54258850166653,0.0939234,0.0
54258859891133,0.0938265,0.0
54258869565195,0.09374358,0.0
54258879269831,0.09367984,0.0
54258888974414,0.0936506,0.0
54258898678997,0.09356086,0.0
54258908383581,0.0935681,0.0
54258918088164,0.09349241,0.0
54258927792747,0.09347208,0.0
54258937497331,0.09348359,0.0
54258947201914,0.09348325,0.0
54258956906549,0.09345942,0.0
54258966611133,0.093457066,0.0
54258976315716,0.093483515,0.0
54258986050820,0.09346473,0.0
54258995755403,0.09346309,0.0
54259005490508,0.09348604,0.0
54259015195091,0.093463436,0.0
54259024899674,0.09347469,0.0
54259034634778,0.09349521,0.0
54259044339362,0.09350952,0.0
54259054074518,0.09351091,0.0
54259063779101,0.09353309,0.0
54259073483685,0.0935462,0.0
54259083218789,0.09352873,0.0
54259092923372,0.093517035,0.0
54259102658476,0.09351388,0.0
54259112363060,0.093523845,0.0
54259122067643,0.09351537,0.0
54259131802747,0.09351441,0.0
54259141507331,0.09351738,0.0
54259151242487,0.09354121,0.0
54259160947070,0.09355177,0.0
54259170682174,0.09355422,0.0
54259180386758,0.09357771,0.0
54259190121862,0.09354147,0.0
54259199856966,0.09355291,0.0
54259209561549,0.093565054,0.0
54259219296653,0.0935757,0.0
54259229001237,0.093610175,0.0
54259238736341,0.09365584,0.0
54259248471445,0.093684725,0.0
54259258176081,0.09372715,0.0
54259267911185,0.09371493,0.0
54259277615768,0.09374076,0.0
54259287350872,0.09379105,0.0
54259297055456,0.09379734,0.0
54259306790560,0.09385942,0.0
54259316495143,0.09390611,0.0
54259326230247,0.093935445,0.0
54259335934831,0.09393981,0.0
54259345669935,0.09398625,0.0
54259355374518,0.09401471,0.0
54259365109674,0.09407644,0.0
54259374814258,0.094069704,0.0
54259384549362,0.094115645,0.0
54259394284466,0.09416826,0.0
54259403989049,0.09419586,0.0
54259413724153,0.094247274,0.0
54259423428737,0.09423959,0.0
54259433163841,0.09425793,0.0
54259442898945,0.09421481,0.0
54259452603528,0.094165646,0.0
54259462338633,0.094077915,0.0
54259472043268,0.09394095,0.0
54259481778372,0.09382893,0.0
54259491482956,0.09370367,0.0
54259501218060,0.09354644,0.0
54259510922643,0.093433924,0.0
54259520657747,0.093341395,0.0
54259530362331,0.09326099,0.0
54259540097435,0.093172036,0.0
54259549802018,0.09306946,0.0
54259559537122,0.09298373,0.0
54259569241706,0.09294139,0.0
54259578976862,0.09286091,0.0
54259588711966,0.09281953,0.0
54259598416549,0.09280869,0.0
54259608151653,0.09278268,0.0
54259617856237,0.092776135,0.0
54259627591341,0.092777096,0.0
54259637326445,0.09271312,0.0
54259647031028,0.092682555,0.0
54259656766133,0.09270053,0.0
54259666470716,0.09270413,0.0
54259676205820,0.09268954,0.0
54259685910456,0.09269311,0.0
54259695645560,0.09269014,0.0
54259705350143,0.09270236,0.0
54259715085247,0.09269651,0.0
54259724789831,0.09272349,0.0
54259734524935,0.09274453,0.0
54259744229518,0.09272925,0.0
54259753934101,0.09274445,0.0
54259763669206,0.092720695,0.0
54259773373789,0.092724375,0.0
54259783108893,0.09274497,0.0
54259792813528,0.092773594,0.0
54259802518112,0.09272306,0.0
54259812253216,0.09272131,0.0
54259821957799,0.09270727,0.0
54259831555924,0.092704035,0.0
54259841260508,0.09273894,0.0
54259850995612,0.09272428,0.0
54259860700195,0.09273283,0.0
54259870435299,0.09272742,0.0
54259880139883,0.092781454,0.0
54259889875039,0.09273946,0.0
54259899579622,0.09280433,0.0
54259909314726,0.09281524,0.0
54259919019310,0.09284869,0.0
54259928754414,0.092885524,0.0
54259938458997,0.09291676,0.0
54259948163581,0.09293248,0.0
54259957898685,0.09297797,0.0
54259967603268,0.09300582,0.0
54259977338372,0.093034096,0.0
54259987043008,0.09307287,0.0
54259996747591,0.09307137,0.0
54260006482695,0.0931571,0.0
54260016187278,0.09317753,0.0
54260025922383,0.09324013,0.0
54260035626966,0.09325792,0.0
54260045331549,0.09332864,0.0
54260055066653,0.09334995,0.0
54260064771237,0.09341943,0.0
54260074506341,0.0934437,0.0
54260084210976,0.093474165,0.0
54260093915560,0.09349564,0.0
54260103650664,0.09356634,0.0
54260113355247,0.09362458,0.0
54260123090351,0.09359542,0.0
54260132794935,0.093622915,0.0
54260142499518,0.093608506,0.0
54260152234622,0.093583465,0.0
54260161939206,0.093497396,0.0
54260171674310,0.09342335,0.0
54260181378945,0.09330857,0.0
54260191083528,0.093176216,0.0
54260200818633,0.09304379,0.0
54260210523216,0.092960075,0.0
54260220258320,0.092838645,0.0
54260229962903,0.092703514,0.0
54260239667487,0.09257902,0.0
54260249372070,0.09251896,0.0
54260259107174,0.09244406,0.0
54260268811758,0.09237684,0.0
54260278516393,0.09232053,0.0
54260288251497,0.09231179,0.0
54260297956081,0.09226343,0.0
54260307660664,0.09224441,0.0
54260317395768,0.09216078,0.0
54260327100351,0.092153,0.0
54260336804935,0.0921613,0.0
54260346540039,0.092166364,0.0
54260356244622,0.09213642,0.0
54260365979726,0.092131615,0.0
54260375684362,0.09212829,0.0
54260385388945,0.092132576,0.0
54260395124049,0.092143744,0.0
54260404828633,0.09217807,0.0
54260414563737,0.092117034,0.0
54260424268320,0.09217028,0.0
54260433972903,0.09217553,0.0
54260443708008,0.09220407,0.0
54260453412591,0.09222704,0.0
54260463147695,0.09222537,0.0
54260472852331,0.092234194,0.0
54260482556914,0.092201725,0.0
54260492292018,0.09221184,0.0
54260501996601,0.09223001,0.0
54260511731706,0.09221394,0.0
54260521436289,0.09220435,0.0
54260531140872,0.09226666,0.0
54260540845456,0.09224597,0.0
54260550580560,0.092248514,0.0
54260560285195,0.09223909,0.0
54260569989778,0.09227295,0.0
54260579724883,0.09225226,0.0
54260589429466,0.09229391,0.0
54260599134049,0.09227531,0.0
54260608869153,0.09233737,0.0
54260618573737,0.092342615,0.0
54260628278320,0.092392035,0.0
54260638013424,0.092387736,0.0
54260647718008,0.09242014,0.0
54260657453164,0.09245794,0.0
54260667157747,0.09247426,0.0
54260676862331,0.092523485,0.0
54260686597435,0.09254044,0.0
54260696302018,0.09258173,0.0
54260706037122,0.09261875,0.0
54260715741706,0.09266745,0.0
54260725446289,0.09266526,0.0
54260735150872,0.09272716,0.0
54260744885976,0.092742175,0.0
54260754590612,0.09281351,0.0
54260764295195,0.09281708,0.0
54260774030299,0.09286308,0.0
54260783734883,0.092937455,0.0
54260793439466,0.09296845,0.0
54260803174570,0.09297632,0.0
54260812879153,0.09302284,0.0
54260822583737,0.09305068,0.0
54260832318841,0.09307749,0.0
54260842023476,0.0931021,0.0
54260851758581,0.093154475,0.0
54260861463164,0.093169585,0.0
54260871167747,0.09318958,0.0
54260880902851,0.09319428,0.0
54260890607435,0.093158245,0.0
54260900475924,0.09310001,0.0
54260910180508,0.09294811,0.0
54260919885091,0.092879765,0.0
54260929589674,0.09277343,0.0
54260939324831,0.09262528,0.0
54260949029414,0.09248246,0.0
54260958733997,0.09236182,0.0
54260968469101,0.092249125,0.0
54260978173685,0.092193775,0.0
54260987878268,0.09209592,0.0
54260997613372,0.092085704,0.0
54261007317956,0.09198724,0.0
54261017022539,0.09195309,0.0
54261026757643,0.0918734,0.0
54261036462278,0.09187898,0.0
54261046197383,0.09185358,0.0
54261055901966,0.09187111,0.0
54261065606549,0.09183453,0.0
54261075341653,0.091830716,0.0
54261085046237,0.09185104,0.0
54261094781341,0.0918623,0.0
54261104485924,0.091827124,0.0
54261114190508,0.091848254,0.0
54261123895143,0.09186781,0.0
54261133599726,0.09190439,0.0
54261143334831,0.09196296,0.0
54261153039414,0.09190796,0.0
54261162743997,0.09195371,0.0
54261172448581,0.09194043,0.0
54261182153164,0.091964014,0.0
54261191888268,0.09197422,0.0
54261201592851,0.09196262,0.0
54261211297487,0.09193772,0.0
54261221002070,0.09196531,0.0
54261230706653,0.09197988,0.0
54261240441758,0.09200826,0.0
54261250146341,0.09201578,0.0
54261259850924,0.09197484,0.0
54261269555508,0.09203419,0.0
54261279260091,0.09203647,0.0
54261288995195,0.092029124,0.0
54261298699831,0.09204511,0.0
54261308404414,0.09207165,0.0
54261318108997,0.092060804,0.0
54261327844101,0.09209715,0.0
54261337548685,0.09212202,0.0
54261347253268,0.09217587,0.0
54261356988372,0.09217003,0.0
54261366692956,0.09222023,0.0
54261376397539,0.09223671,0.0
54261386132643,0.09224485,0.0
54261395837278,0.092322886,0.0
54261405541862,0.092341565,0.0
54261415276966,0.09235239,0.0
54261424981549,0.092378244,0.0
54261434716653,0.09242913,0.0
54261444421237,0.092492074,0.0
54261454125820,0.092519656,0.0
54261463860924,0.09253711,0.0
54261473565508,0.09258836,0.0
54261483300612,0.0926479,0.0
54261493005247,0.092697054,0.0
54261502709831,0.09273878,0.0
54261512414414,0.092762254,0.0
54261522149518,0.09279891,0.0
54261531854101,0.09286701,0.0
54261541558685,0.09288936,0.0
54261551293789,0.09289049,0.0
54261560998372,0.092938066,0.0
54261570702956,0.092978224,0.0
54261580438112,0.093041174,0.0
54261590142695,0.093080446,0.0
54261599847278,0.09315606,0.0
54261609582383,0.09312585,0.0
54261619286966,0.0931805,0.0
54261629022070,0.09321253,0.0
54261638726653,0.09326579,0.0
54261648431237,0.0932526,0.0
54261658166341,0.09326579,0.0
54261667870924,0.093190365,0.0
54261677606081,0.093123235,0.0
54261687310664,0.09301612,0.0
54261697015247,0.09289774,0.0
54261706719831,0.092788875,0.0
54261716424414,0.09264894,0.0
54261726128997,0.092518784,0.0
54261735833581,0.09244066,0.0
54261745538164,0.0923276,0.0
54261755242799,0.092274874,0.0
54261764947383,0.0921888,0.0
54261774682487,0.09214681,0.0
54261784387070,0.0920678,0.0
54261794091653,0.09203611,0.0
54261803826758,0.09200853,0.0
54261813531341,0.09200853,0.0
54261823266445,0.09201664,0.0
54261832971028,0.09203341,0.0
54261842675612,0.09200172,0.0
54261852410768,0.09199648,0.0
54261862115351,0.09199158,0.0
54261871925456,0.09199937,0.0
54261881630039,0.09200268,0.0
54261891365143,0.09205401,0.0
54261901100247,0.09203079,0.0
54261910804831,0.09209617,0.0
54261920539935,0.0921125,0.0
54261930275039,0.09210953,0.0
54261939979622,0.09212804,0.0
54261949714726,0.09217501,0.0
54261959449831,0.09217702,0.0
54261969184987,0.09220669,0.0
54261978889570,0.09218216,0.0
54261988594153,0.09220503,0.0
54261998298737,0.0921977,0.0
54262008033841,0.09220251,0.0
54262017738424,0.092229836,0.0
54262027443008,0.092208974,0.0
54262037178112,0.09223245,0.0
54262046882695,0.09223001,0.0
54262056587331,0.092234716,0.0
54262066322435,0.092259586,0.0
54262076027018,0.09228588,0.0
54262085731601,0.09233248,0.0
54262095436185,0.092337206,0.0
54262105140768,0.092342615,0.0
54262114875872,0.09236191,0.0
54262124580456,0.0923942,0.0
54262134285039,0.09244859,0.0
54262143989674,0.092490315,0.0
54262153694258,0.0925152,0.0
54262163429362,0.09257124,0.0
54262173133945,0.092627026,0.0
54262182838528,0.09263489,0.0
54262192573633,0.09269443,0.0
54262202278216,0.0927393,0.0
54262212013320,0.0927873,0.0
54262221717903,0.0928067,0.0
54262231422487,0.09285986,0.0
54262241157643,0.09292053,0.0
54262250862226,0.0929818,0.0
54262260597331,0.09299718,0.0
54262270301914,0.09306902,0.0
54262280006497,0.09309651,0.0
54262289711081,0.09314776,0.0
54262299415664,0.09320024,0.0
54262309120247,0.09322004,0.0
54262318824831,0.093315706,0.0
54262328529466,0.093340956,0.0
54262338234049,0.09343113,0.0
54262347938633,0.0934245,0.0
54262357673737,0.093489885,0.0
54262367378320,0.09353641,0.0
54262377082903,0.09357193,0.0
54262386818008,0.09364247,0.0
54262396522591,0.09367853,0.0
54262406257695,0.09370969,0.0
54262415962331,0.09377684,0.0
54262425666914,0.09380896,0.0
54262435402018,0.09386028,0.0
54262445106601,0.09392847,0.0
54262454841706,0.09398066,0.0
54262464546289,0.09399429,0.0
54262474250872,0.09406893,0.0
54262483955456,0.09411353,0.0
54262493660039,0.09413457,0.0
54262503364674,0.09418407,0.0
54262513069258,0.09411343,0.0
54262522773841,0.09408988,0.0
54262532478424,0.09398677,0.0
54262542183008,0.0939241,0.0
54262551918112,0.09382152,0.0
54262561622695,0.09368046,0.0
54262571357799,0.093571514,0.0
54262581062383,0.09345853,0.0
54262590797487,0.09335204,0.0
54262600532643,0.09326248,0.0
54262610237226,0.09316312,0.0
54262619972331,0.09310639,0.0
54262629676914,0.09307399,0.0
54262639412018,0.09300007,0.0
54262649147122,0.09296697,0.0
54262658851706,0.09297893,0.0
54262668556289,0.09287503,0.0
54262678260872,0.09288518,0.0
54262687965456,0.09284431,0.0
54262697670091,0.09287409,0.0
54262707374674,0.09282702,0.0
54262717079258,0.09284309,0.0
54262726783841,0.09280599,0.0
54262736488424,0.092837155,0.0
54262746223528,0.09279769,0.0
54262755928112,0.09286054,0.0
54262765663216,0.09285479,0.0
54262775398320,0.092888236,0.0
54262785102956,0.09288866,0.0
54262794838060,0.09286534,0.0
54262804573164,0.09289467,0.0
54262814277747,0.092920095,0.0
54262824012851,0.09289041,0.0
54262833747956,0.09293041,0.0
54262843849674,0.09290141,0.0
54262853554258,0.09292193,0.0
54262863289362,0.09296454,0.0
54262872993945,0.09293598,0.0
54262882729049,0.09292917,0.0
54262892433633,0.09294357,0.0
54262902168789,0.092950724,0.0
54262911873372,0.09297605,0.0
54262921608476,0.092954226,0.0
54262931313060,0.09296767,0.0
54262941048164,0.09297648,0.0
54262950752747,0.093019694,0.0
54262960487851,0.09303157,0.0
54262970192435,0.093047276,0.0
54262979927539,0.09305234,0.0
54262989632122,0.09308395,0.0
54262999367226,0.093128294,0.0
54263009071862,0.09317945,0.0
54263018806966,0.0932065,0.0
54263028511549,0.09321752,0.0
54263038246653,0.093264475,0.0
54263047951237,0.09328255,0.0
54263057655820,0.093302466,0.0
54263067360403,0.09335151,0.0
54263077095508,0.093380846,0.0
54263086800091,0.093454085,0.0
54263096504726,0.093434446,0.0
54263106239831,0.09353309,0.0
54263115944414,0.09357159,0.0
54263125648997,0.09357771,0.0
54263135384101,0.09362641,0.0
54263145088685,0.09365574,0.0
54263154793268,0.09371833,0.0
54263164497851,0.09373571,0.0
54263174232956,0.09376749,0.0
54263183937539,0.09385235,0.0
54263193642174,0.09390384,0.0
54263203377278,0.093918875,0.0
54263213081862,0.094006166,0.0
54263222786445,0.0940271,0.0
54263232521549,0.094071195,0.0
54263242226133,0.0941199,0.0
54263251930716,0.09416748,0.0
54263261665820,0.09417316,0.0
54263271370403,0.094269186,0.0
54263281105508,0.09428393,0.0
54263290810143,0.09436618,0.0
54263300514726,0.09438469,0.0
54263310249831,0.09445112,0.0
54263319954414,0.09447407,0.0
54263329689518,0.0945343,0.0
54263339394101,0.09455325,0.0
54263349098685,0.09462291,0.0
54263358803268,0.094639584,0.0
54263368507851,0.09467502,0.0
54263378243008,0.09476189,0.0
54263387947591,0.094789125,0.0
54263397652174,0.09488043,0.0
54263407356758,0.09490129,0.0
54263417061341,0.09491973,0.0
54263426796445,0.09496258,0.0
54263436501028,0.09498851,0.0
54263446205612,0.094957516,0.0
54263455910195,0.09492348,0.0
54263465645351,0.09485932,0.0
54263475349935,0.094750635,0.0
54263485054518,0.09461777,0.0
54263494789622,0.09452462,0.0
54263504494206,0.09440746,0.0
54263514198789,0.09431398,0.0
54263523933893,0.09420362,0.0
54263533638476,0.09411082,0.0
54263543343060,0.094048575,0.0
54263553078164,0.09395998,0.0
54263562782799,0.09390996,0.0
54263572517903,0.09387416,0.0
54263582222487,0.09387679,0.0
54263591927070,0.09382457,0.0
54263601662174,0.093847275,0.0
54263611366758,0.093768455,0.0
54263621101862,0.0937887,0.0
54263630806445,0.09380275,0.0
54263640511028,0.093739465,0.0
54263650246133,0.093752384,0.0
54263659950768,0.0938436,0.0
54263669685872,0.09380161,0.0
54263679390456,0.09385139,0.0
54263689095039,0.09379123,0.0
54263698830143,0.09385146,0.0
54263708534726,0.09382389,0.0
54263718269831,0.09388202,0.0
54263727974414,0.093865246,0.0
54263737678997,0.093873285,0.0
54263747383633,0.09383635,0.0
54263757118737,0.093881235,0.0
54263766823320,0.09387207,0.0
54263776527903,0.0939035,0.0
54263786263008,0.09391833,0.0
54263795967591,0.09391023,0.0
54263805672174,0.09386361,0.0
54263815407278,0.0938829,0.0
54263825111862,0.093898594,0.0
54263834816445,0.09389825,0.0
54263844521081,0.09388481,0.0
54263854225664,0.09389345,0.0
54263863960768,0.093923666,0.0
54263873665351,0.09390873,0.0
54263883369935,0.093927324,0.0
54263893074518,0.0939688,0.0
54263902779101,0.09395334,0.0
54263912768528,0.09400669,0.0
54263922473112,0.09401358,0.0
54263932177747,0.09401865,0.0
54263941882331,0.09408734,0.0
54263951586914,0.09412051,0.0
54263961322018,0.09410803,0.0
54263971026601,0.09415805,0.0
54263980731185,0.0941797,0.0
54263990435768,0.09419157,0.0
54264000140351,0.094244316,0.0
54264009875456,0.094266824,0.0
54264019580091,0.0943234,0.0
54264029284674,0.094334126,0.0
54264038989258,0.09435308,0.0
54264048693841,0.09439157,0.0
54264058428945,0.09441821,0.0
54264068133528,0.09446796,0.0
54264077838112,0.09451632,0.0
54264087542695,0.094567575,0.0
54264097247331,0.09458729,0.0
54264106982435,0.09460572,0.0
54264116687018,0.09470663,0.0
54264126391601,0.0946959,0.0
54264136096185,0.09474993,0.0
54264145831289,0.09476618,0.0
54264155535872,0.09481802,0.0
54264165240456,0.09485355,0.0
54264174975560,0.09486682,0.0
54264184680143,0.094950974,0.0
54264194384778,0.09498022,0.0
54264204119883,0.09502125,0.0
54264213824466,0.095044464,0.0
54264223529049,0.09513334,0.0
54264233264153,0.095156565,0.0
54264242968737,0.095189735,0.0
54264252703841,0.09519916,0.0
54264262408424,0.09524866,0.0
54264272113008,0.09525494,0.0
54264281848112,0.09531981,0.0
54264291552747,0.09536146,0.0
54264301287851,0.095385104,0.0
54264310992435,0.095454946,0.0
54264320697018,0.09546822,0.0
54264330401601,0.095512904,0.0
54264340136706,0.09557716,0.0
54264349841289,0.09556931,0.0
54264359545872,0.09559359,0.0
54264369280976,0.09557481,0.0
54264378985612,0.09557035,0.0
54264388690195,0.09546664,0.0
54264398425299,0.09540989,0.0
54264408129883,0.0953192,0.0
54264417834466,0.0952106,0.0
54264427539049,0.095113784,0.0
54264437243633,0.09499708,0.0
54264446978737,0.09488271,0.0
54264456683320,0.09480406,0.0
54264466387956,0.09470463,0.0
54264476092539,0.09460336,0.0
54264485797122,0.094537705,0.0
54264495532226,0.094498694,0.0
54264505236810,0.09446158,0.0
54264514971914,0.09443373,0.0
54264524676497,0.09440624,0.0
54264534411601,0.09442946,0.0
54264544146706,0.09437629,0.0
54264553851289,0.09437786,0.0
54264563586393,0.094394356,0.0
54264573291028,0.09438537,0.0
54264583026133,0.09435176,0.0
54264592761237,0.09438799,0.0
54264602465820,0.0944285,0.0
54264612170403,0.094389215,0.0
54264621905508,0.09442073,0.0
54264631610091,0.09440808,0.0
54264641345195,0.09444911,0.0
54264651049778,0.09445827,0.0
54264660754362,0.094483584,0.0
54264670489518,0.09447005,0.0
54264680194101,0.09449275,0.0
54264689929206,0.0944615,0.0
54264699633789,0.09445383,0.0
54264709368893,0.09444605,0.0
54264719073476,0.09444953,0.0
54264728808581,0.09444833,0.0
54264738513164,0.094442725,0.0
54264748248268,0.0944031,0.0
54264757952851,0.09439934,0.0
54264767687956,0.094388165,0.0
54264777392591,0.09441681,0.0
54264787127695,0.094441086,0.0
54264796832278,0.094444565,0.0
54264806536862,0.09445321,0.0
54264816241445,0.094442375,0.0
54264825976549,0.09444474,0.0
54264835681133,0.09442842,0.0
54264845385716,0.09446743,0.0
54264855120820,0.09448611,0.0
54264864825456,0.094478615,0.0
54264874530039,0.09452663,0.0
54264884340403,0.09456146,0.0
54264894044987,0.09458136,0.0
54264903749570,0.094626665,0.0
54264913484674,0.09461767,0.0
54264923189258,0.094642475,0.0
54264932924362,0.09467059,0.0
54264942628945,0.09469267,0.0
54264952333528,0.09473946,0.0
54264962068685,0.09473586,0.0
54264971773268,0.094794974,0.0
54264981508372,0.09479436,0.0
54264991212956,0.09484387,0.0
54265000917539,0.094864815,0.0
54265010652643,0.09486498,0.0
54265020357226,0.0949248,0.0
54265030092331,0.094947666,0.0
54265039796914,0.09498441,0.0
54265049501497,0.094999865,0.0
54265059236653,0.0950318,0.0
54265068941237,0.09506524,0.0
54265078676341,0.09506778,0.0
54265088380924,0.095081836,0.0
54265098116028,0.095108904,0.0
54265107820612,0.09517987,0.0
54265117555716,0.095174976,0.0
54265127260299,0.09519324,0.0
54265136995403,0.09526019,0.0
54265146699987,0.095271274,0.0
54265156435091,0.09528201,0.0
54265166139726,0.09530384,0.0
54265175874831,0.09531334,0.0
54265185579414,0.09534173,0.0
54265195283997,0.09537515,0.0
54265204988581,0.09539645,0.0
54265214723685,0.09543487,0.0
54265224428268,0.09540186,0.0
54265234132851,0.09540527,0.0
54265243867956,0.09534451,0.0
54265253572591,0.095326714,0.0
54265263277174,0.09515858,0.0
54265273012278,0.09506569,0.0
54265282716862,0.094944,0.0
54265292421445,0.09483278,0.0
54265302156549,0.09470411,0.0
54265311861133,0.09459324,0.0
54265321596237,0.09448804,0.0
54265331300820,0.0944072,0.0
54265341005403,0.09435438,0.0
54265350740560,0.094284035,0.0
54265360445143,0.09421654,0.0
54265370180247,0.094165914,0.0
54265379884831,0.094119996,0.0
54265389589414,0.09409983,0.0
54265399293997,0.094111085,0.0
54265409029101,0.09404676,0.0
54265418733685,0.09405382,0.0
54265428438268,0.0940361,0.0
54265438173372,0.09400702,0.0
54265447878008,0.09402134,0.0
54265457582591,0.09403235,0.0
54265467317695,0.09405619,0.0
54265477022278,0.094045706,0.0
54265486726862,0.09407529,0.0
54265496461966,0.09407042,0.0
54265506166549,0.09409197,0.0
54265515901653,0.094084546,0.0
54265525606237,0.09405041,0.0
54265535310872,0.0941035,0.0
54265545045976,0.09409128,0.0
54265554750560,0.094102785,0.0
54265564485664,0.09412821,0.0
54265574190247,0.094092056,0.0
54265583894831,0.094091885,0.0
54265593629935,0.09405854,0.0
54265603334518,0.094092935,0.0
54265613069622,0.094090745,0.0
54265622774206,0.09407739,0.0
54265632478841,0.09404387,0.0
54265642213945,0.0940711,0.0
54265651918528,0.09405653,0.0
54265661653633,0.094067454,0.0
54265671358216,0.09407739,0.0
54265681062799,0.09407835,0.0
54265690767383,0.09410533,0.0
54265700502487,0.09411572,0.0
54265710207070,0.09412069,0.0
54265719911653,0.094160944,0.0
54265729646810,0.09417952,0.0
54265739351393,0.094221346,0.0
54265749055976,0.094252594,0.0
54265758791081,0.09422928,0.0
54265768495664,0.094268136,0.0
54265778200247,0.094303936,0.0
54265787935351,0.09432113,0.0
54265797639935,0.09434269,0.0
54265807375039,0.09442135,0.0
54265817079622,0.09439647,0.0
54265826784258,0.09447005,0.0
54265836519362,0.09450759,0.0
54265846223945,0.09447407,0.0
54265855959049,0.0945701,0.0
54265865663633,0.09459664,0.0
54265875368216,0.09464657,0.0
54265885072799,0.09464657,0.0
54265894777383,0.09471092,0.0
54265904512487,0.09474505,0.0
54265914217122,0.09479899,0.0
54265923921706,0.0948209,0.0
54265933626289,0.09485983,0.0
54265943330872,0.09488944,0.0
54265952938997,0.09492873,0.0
54265962643581,0.094955266,0.0
54265972378685,0.09497639,0.0
54265982083268,0.09501968,0.0
54265991818372,0.095043436,0.0
54266001522956,0.09508743,0.0
54266011258112,0.09509493,0.0
54266020962695,0.09519243,0.0
54266030697799,0.09521558,0.0
54266040402383,0.09517813,0.0
54266050137487,0.095173575,0.0
54266059842070,0.09513178,0.0
54266069546653,0.095061846,0.0
54266079251237,0.09503792,0.0
54266088955820,0.094903305,0.0
54266098660456,0.094791576,0.0
54266108365039,0.09461663,0.0
54266118069622,0.094498254,0.0
54266127774206,0.09437585,0.0
54266137478789,0.0942285,0.0
54266147213893,0.09416233,0.0
54266156918476,0.09404755,0.0
54266166653581,0.093968354,0.0
54266176358164,0.09385766,0.0
54266186093268,0.09382877,0.0
54266195797903,0.09378373,0.0
54266205533008,0.093711175,0.0
54266215237591,0.09368796,0.0
54266224972695,0.0936465,0.0
54266234677278,0.09357874,0.0
54266244412383,0.09358398,0.0
54266254116966,0.09355222,0.0
54266263821549,0.09352934,0.0
54266273526133,0.093523666,0.0
54266283230768,0.0935186,0.0
54266292965872,0.09350202,0.0
54266302670456,0.09349668,0.0
54266312375039,0.093506284,0.0
54266322079622,0.093532994,0.0
54266331784206,0.09351213,0.0
54266341519310,0.09352943,0.0
54266351223893,0.09355665,0.0
54266360928476,0.093507335,0.0
54266370633112,0.09352,0.0
54266380337695,0.093510665,0.0
54266390042278,0.09349844,0.0
54266399746862,0.09347513,0.0
54266409451445,0.093465686,0.0
54266419156028,0.09345967,0.0
54266428860612,0.09340163,0.0
54266438595716,0.09342694,0.0
54266448300299,0.09343332,0.0
54266458004935,0.093391836,0.0
54266467709518,0.09338983,0.0
54266477444622,0.09340817,0.0
54266487149206,0.0934485,0.0
54266496853789,0.09343829,0.0
54266506588893,0.093425974,0.0
54266516293476,0.093393244,0.0
54266525998060,0.09342205,0.0
54266535733164,0.09347871,0.0
54266545437799,0.09346579,0.0
54266555142383,0.093467966,0.0
54266564846966,0.093473725,0.0
54266574551549,0.093493894,0.0
54266584256133,0.093496,0.0
54266593960716,0.09358145,0.0
54266603665299,0.09358853,0.0
54266613369883,0.09362493,0.0
54266623074518,0.09369241,0.0
54266632809622,0.09370202,0.0
54266642514206,0.093699574,0.0
54266652218789,0.09374906,0.0
54266661923372,0.093738064,0.0
54266671658476,0.09380764,0.0
54266681363060,0.09386823,0.0
54266691067643,0.093907945,0.0
54266700802747,0.093940586,0.0
54266710507331,0.093943655,0.0
54266720211966,0.093969144,0.0
54266729947070,0.09397516,0.0
54266739651653,0.09403907,0.0
54266749356237,0.09405504,0.0
54266759060820,0.0941199,0.0
54266768765403,0.09415325,0.0
54266778500508,0.09419568,0.0
54266788205091,0.09420537,0.0
54266797909674,0.09422362,0.0
54266807614310,0.09431127,0.0
54266817318893,0.094311796,0.0
54266827053997,0.09434688,0.0
54266836758581,0.09439393,0.0
54266846463164,0.09438687,0.0
54266856167747,0.09431738,0.0
54266865872331,0.09427233,0.0
54266875607435,0.09418442,0.0
54266885312018,0.094057485,0.0
54266895016653,0.09393379,0.0
54266904721237,0.09380607,0.0
54266914425820,0.093652606,0.0
54266924491862,0.09353038,0.0
54266934196445,0.09334453,0.0
54266943901028,0.09324162,0.0
54266953605612,0.09311833,0.0
54266963310195,0.09301813,0.0
54266973045299,0.09293109,0.0
54266982749935,0.09286194,0.0
54266992454518,0.09280136,0.0
54267002159101,0.09270831,0.0
54267011863685,0.09268456,0.0
54267021598789,0.09266544,0.0
54267031303372,0.092649914,0.0
54267041007956,0.092610106,0.0
54267050712539,0.09257325,0.0
54267060447643,0.09254201,0.0
54267070152278,0.09252316,0.0
54267079856862,0.09254113,0.0
54267089591966,0.09254157,0.0
54267099296549,0.09254129,0.0
54267109001133,0.092511885,0.0
54267118736237,0.09253563,0.0
54267128440820,0.09249731,0.0
54267138145403,0.09250865,0.0
54267147880508,0.092505515,0.0
54267157585143,0.09250979,0.0
54267167320247,0.09249627,0.0
54267177024831,0.09247826,0.0
54267186729414,0.09245533,0.0
54267196464518,0.09246431,0.0
54267206169101,0.09244327,0.0
54267215904206,0.09241595,0.0
54267225608789,0.09240582,0.0
54267235343893,0.09243525,0.0
54267245048476,0.09242721,0.0
54267254783581,0.09240721,0.0
54267264488216,0.09238365,0.0
54267274223320,0.092366874,0.0
54267283927903,0.092370994,0.0
54267293663008,0.09239071,0.0
54267303367591,0.092381895,0.0
54267313102695,0.0924018,0.0
54267322807278,0.0923805,0.0
54267332511862,0.0923901,0.0
54267342216445,0.09239411,0.0
54267351951549,0.09238067,0.0
54267361656185,0.09242109,0.0
54267371360768,0.09247486,0.0
54267381095872,0.09248814,0.0
54267390800456,0.09250168,0.0
54267400505039,0.092523485,0.0
54267410240143,0.09254995,0.0
54267419944726,0.09261333,0.0
54267429679831,0.09260163,0.0
54267439384414,0.09261882,0.0
54267449119518,0.09261875,0.0
54267458824153,0.092660375,0.0
54267468559258,0.09272986,0.0
54267478263841,0.09272646,0.0
54267487998945,0.09274506,0.0
54267497703528,0.0928101,0.0
54267507438633,0.09287078,0.0
54267517143216,0.09284632,0.0
54267526878320,0.09289582,0.0
54267536582903,0.09293179,0.0
54267546318008,0.092950106,0.0
54267556022643,0.09296443,0.0
54267565757747,0.09298417,0.0
54267575462331,0.092991844,0.0
54267585197435,0.09303794,0.0
54267594902018,0.09307714,0.0
54267604637122,0.0931083,0.0
54267614341706,0.09312288,0.0
54267624046289,0.09314121,0.0
54267633781393,0.093136944,0.0
54267643485976,0.09312078,0.0
54267653221081,0.0930382,0.0
54267662925716,0.09294156,0.0
54267672630299,0.092837065,0.0
54267682365403,0.092713974,0.0
54267692069987,0.09258084,0.0
54267701805091,0.09243008,0.0
54267711509674,0.092273735,0.0
54267721214258,0.09214462,0.0
54267730949362,0.091995776,0.0
54267740653945,0.09190796,0.0
54267750389049,0.09178434,0.0
54267760093685,0.09170256,0.0
54267769798268,0.0916094,0.0
54267779533372,0.091554046,0.0
54267789237956,0.09152324,0.0
54267798973060,0.09145123,0.0
54267808677643,0.09142398,0.0
54267818382226,0.09139142,0.0
54267828117331,0.09137334,0.0
54267837821914,0.09133616,0.0
54267847557018,0.091353364,0.0
54267857261653,0.091340356,0.0
54267866966237,0.09132281,0.0
54267876701341,0.09134873,0.0
54267886405924,0.09132893,0.0
54267896141028,0.09134132,0.0
54267905845612,0.091346815,0.0
54267915550195,0.09135677,0.0
54267925254778,0.09137571,0.0
54267934989883,0.09134863,0.0
54267944694518,0.09134707,0.0
54267954399101,0.09133634,0.0
54267964134206,0.09135939,0.0
54267973838789,0.0913649,0.0
54267983543372,0.091287374,0.0
54267993392226,0.09126195,0.0
54268003096810,0.09132481,0.0
54268012831914,0.091285884,0.0
54268022536497,0.09124607,0.0
54268032271601,0.0912191,0.0
54268042006706,0.09117657,0.0
54268051711341,0.09122617,0.0
54268061446445,0.09118715,0.0
54268071151028,0.09117719,0.0
54268080886133,0.0911668,0.0
54268090621237,0.091165066,0.0
54268100325820,0.09118419,0.0
54268110030403,0.091183215,0.0
54268119734987,0.09120566,0.0
54268129439570,0.091215335,0.0
54268139174674,0.09122555,0.0
54268148879310,0.09123725,0.0
54268158583893,0.091272436,0.0
54268168288476,0.0912741,0.0
54268177993060,0.09129819,0.0
54268187728164,0.091334775,0.0
54268197432747,0.09140329,0.0
54268207167851,0.091442585,0.0
54268216872435,0.09146291,0.0
54268226607539,0.09148806,0.0
54268236312174,0.09149793,0.0
54268246047278,0.0915194,0.0
54268255751862,0.091585144,0.0
54268265486966,0.09161516,0.0
54268275191549,0.09163743,0.0
54268284926653,0.09169697,0.0
54268294631237,0.09170473,0.0
54268304335820,0.09173486,0.0
54268314070924,0.09181088,0.0
54268323775508,0.091798835,0.0
54268333510612,0.09182643,0.0
54268343215247,0.091847114,0.0
54268352919831,0.09187077,0.0
54268362654935,0.091908835,0.0
54268372359518,0.09195265,0.0
54268382094622,0.09200975,0.0
54268391799206,0.09201349,0.0
54268401503789,0.09206309,0.0
54268411208372,0.092045024,0.0
54268420912956,0.09197308,0.0
54268430648112,0.09194612,0.0
54268440352695,0.09180461,0.0
54268450057278,0.091698535,0.0
54268459761862,0.0915456,0.0
54268469466445,0.09137109,0.0
54268479201549,0.0912129,0.0
54268488906133,0.091038205,0.0
54268498610716,0.09089322,0.0
54268508315299,0.09074506,0.0
54268518019935,0.090607226,0.0
54268527755039,0.09053075,0.0
54268537459622,0.09042853,0.0
54268547164206,0.09035214,0.0
54268556868789,0.09030622,0.0
54268566573372,0.09021413,0.0
54268576308476,0.09019065,0.0
54268586013060,0.090139136,0.0
54268595717643,0.090133205,0.0
54268605422278,0.090077676,0.0
54268615126862,0.09005436,0.0
54268624861966,0.09004137,0.0
54268634566549,0.09006205,0.0
54268644271133,0.0900487,0.0
54268653975716,0.09006038,0.0
54268663680299,0.09003683,0.0
54268673415403,0.0900439,0.0
54268683119987,0.09007872,0.0
54268692824622,0.090080835,0.0
54268702559726,0.09005585,0.0
54268712264310,0.090064496,0.0
54268721999414,0.09008073,0.0
54268731703997,0.0901023,0.0
54268741408581,0.090113394,0.0
54268751143685,0.09012316,0.0
54268760848268,0.09008781,0.0
54268770583372,0.09007104,0.0
54268780287956,0.0900906,0.0
54268789992591,0.09011514,0.0
54268799697174,0.09004477,0.0
54268809432278,0.09004173,0.0
54268819136862,0.090064935,0.0
54268828841445,0.090036124,0.0
54268838576549,0.090064935,0.0
54268848281133,0.09002373,0.0
54268857985716,0.09011514,0.0
54268867720820,0.090111285,0.0
54268877425456,0.09014822,0.0
54268887130039,0.090107545,0.0
54268896834622,0.09014848,0.0
54268906539206,0.090172306,0.0
54268916274310,0.09019833,0.0
54268925978893,0.09027104,0.0
54268935683476,0.09027463,0.0
54268945388060,0.090336785,0.0
54268955092643,0.09036298,0.0
54268964827799,0.090350926,0.0
54268974532383,0.09041291,0.0
54268984236966,0.09042897,0.0
54268993972070,0.09051565,0.0
54269003676653,0.090530664,0.0
54269013411758,0.09057912,0.0
54269023116341,0.09064388,0.0
54269032820924,0.0906638,0.0
54269042556028,0.09070527,0.0
54269052260612,0.09077248,0.0
54269061995768,0.090818495,0.0
54269071700351,0.090844765,0.0
54269081404935,0.09088274,0.0
54269091140039,0.09094638,0.0
54269100844622,0.091006875,0.0
54269110579726,0.09101586,0.0
54269120284310,0.091069646,0.0
54269129988893,0.091073394,0.0
54269139723997,0.091142364,0.0
54269149428581,0.09116636,0.0
54269159163737,0.09121081,0.0
54269168868320,0.091285616,0.0
54269178572903,0.091265455,0.0
54269188277487,0.09136742,0.0
54269198012591,0.09137065,0.0
54269207717174,0.09136497,0.0
54269217421758,0.091362886,0.0
54269227156862,0.09122966,0.0
54269236861445,0.09119335,0.0
54269246566081,0.091006175,0.0
54269256301185,0.09086859,0.0
54269266005768,0.09071137,0.0
54269275710351,0.09050405,0.0
54269285414935,0.09036192,0.0
54269295119518,0.09019011,0.0
54269304854622,0.09002033,0.0
54269314559206,0.08990073,0.0
54269324263789,0.08981604,0.0
54269333968424,0.08973051,0.0
54269343673008,0.08968022,0.0
54269353408112,0.089589246,0.0
54269363112695,0.08954334,0.0
54269372817278,0.08949227,0.0
54269382552383,0.08945245,0.0
54269392256966,0.08944626,0.0
54269401992070,0.08940358,0.0
54269411696653,0.089414224,0.0
54269421401237,0.08937948,0.0
54269431136393,0.089372754,0.0
54269440840976,0.08935075,0.0
54269450576081,0.089373365,0.0
54269460280664,0.089378774,0.0
54269469985247,0.089381665,0.0
54269479689831,0.089406714,0.0
54269489394414,0.089372754,0.0
54269499098997,0.089394666,0.0
54269508803581,0.089461714,0.0
54269518508216,0.08942243,0.0
54269528212799,0.08943246,0.0
54269537917383,0.089441724,0.0
54269547652487,0.08945088,0.0
54269557357070,0.08947052,0.0
54269567092174,0.08943281,0.0
54269576796758,0.089392215,0.0
54269586531862,0.08948379,0.0
54269596236445,0.08945142,0.0
54269605971549,0.089462146,0.0
54269615676185,0.08947306,0.0
54269625411289,0.08948633,0.0
54269635115872,0.08945987,0.0
54269644850976,0.089501694,0.0
54269654555560,0.08953294,0.0
54269664260143,0.08952762,0.0
54269673964726,0.089550495,0.0
54269683699831,0.08959317,0.0
54269693404414,0.08964068,0.0
54269703109049,0.0896164,0.0
54269712844153,0.08968144,0.0
54269722548737,0.08975215,0.0
54269732253320,0.089743145,0.0
54269741988424,0.0898405,0.0
54269751693008,0.08984756,0.0
54269761397591,0.08988529,0.0
54269771102174,0.089912415,0.0
54269780837278,0.0899779,0.0
54269790541862,0.09001475,0.0
54269800246497,0.090031065,0.0
54269809981601,0.09007681,0.0
54269819686185,0.09019072,0.0
54269829390768,0.09022583,0.0
54269839125872,0.090237886,0.0
54269848830456,0.09033242,0.0
54269858565560,0.09040356,0.0
54269868270143,0.09039937,0.0
54269878005247,0.090463616,0.0
54269887740351,0.09052682,0.0
54269897444987,0.09054655,0.0
54269907180091,0.090621896,0.0
54269916884674,0.090669826,0.0
54269926619778,0.09073913,0.0
54269936354883,0.09075642,0.0
54269946059466,0.09078854,0.0
54269955764049,0.090858035,0.0
54269965468633,0.09093032,0.0
54269975203737,0.09094917,0.0
54269984908320,0.091002434,0.0
54269994612956,0.091075495,0.0
54270004348060,0.09109933,0.0
54270014052643,0.09119709,0.0
54270023757226,0.09118977,0.0
54270033362956,0.091222934,0.0
54270043067539,0.091276355,0.0
54270052772122,0.091272704,0.0
54270062507226,0.09124685,0.0
54270072211810,0.09119369,0.0
54270081946914,0.09109173,0.0
54270091651549,0.09094908,0.0
54270101356133,0.090810284,0.0
54270111091237,0.09067733,0.0
54270120795820,0.09047716,0.0
54270130530924,0.09033651,0.0
54270140235508,0.0901813,0.0
54270149940091,0.090077676,0.0
54270159644674,0.08995162,0.0
54270169379778,0.08988396,0.0
54270179084362,0.08982025,0.0
54270188788997,0.08975686,0.0
54270198524101,0.089706585,0.0
54270208228685,0.08966082,0.0
54270217933268,0.089625485,0.0
54270227668372,0.08960243,0.0
54270237372956,0.089613244,0.0
54270247077539,0.08957938,0.0
54270256812643,0.08955321,0.0
54270266517226,0.08956716,0.0
54270276252331,0.08958192,0.0
54270285956966,0.089567944,0.0
54270295661549,0.089608625,0.0
54270305396653,0.08963115,0.0
54270315101237,0.08964024,0.0
54270324836341,0.089634374,0.0
54270334540924,0.08964643,0.0
54270344276028,0.08971235,0.0
54270353980612,0.089705974,0.0
54270363715716,0.08972143,0.0
54270373420299,0.08972526,0.0
54270383155456,0.08973635,0.0
54270392860039,0.08976063,0.0
54270402595143,0.089767605,0.0
54270412299726,0.08974899,0.0
54270422034831,0.08971993,0.0
54270431739414,0.08974176,0.0
54270441474518,0.08976227,0.0
54270451179101,0.08973372,0.0
54270460914206,0.08977468,0.0
54270470618789,0.08977686,0.0
54270480353893,0.08977799,0.0
54270490058528,0.08983064,0.0
54270499793633,0.089855775,0.0
54270509498216,0.0898974,0.0
54270519233320,0.089861885,0.0
54270528937903,0.089908846,0.0
54270538642487,0.08994454,0.0
54270548377591,0.08999012,0.0
54270558082174,0.090022326,0.0
54270567817278,0.09001063,0.0
54270577521862,0.09013085,0.0
54270587226497,0.090109184,0.0
54270596961601,0.090165675,0.0
54270606666185,0.09020906,0.0
54270616401289,0.09024809,0.0
54270626105872,0.09031688,0.0
54270635840976,0.090328045,0.0
54270645545560,0.0903586,0.0
54270655280664,0.09042442,0.0
54270664985247,0.09045254,0.0
54270674720351,0.090488255,0.0
54270684424987,0.09057048,0.0
54270694160091,0.09060417,0.0
54270703864674,0.090608284,0.0
54270713599778,0.09067253,0.0
54270723304362,0.0907167,0.0
54270733008945,0.09080635,0.0
54270742713528,0.09084606,0.0
54270752448633,0.090887986,0.0
54270762153216,0.09092777,0.0
54270771857799,0.090986446,0.0
54270781592956,0.09098854,0.0
54270791297539,0.091033764,0.0
54270801002122,0.09107348,0.0
54270810737226,0.091144994,0.0
54270820441810,0.09119422,0.0
54270830146393,0.091274716,0.0
54270839850976,0.09128553,0.0
54270849586081,0.09130028,0.0
54270859290664,0.09134297,0.0
54270868995299,0.09141822,0.0
54270878730403,0.09138443,0.0
54270888434987,0.09132856,0.0
54270898139570,0.09125917,0.0
54270907874674,0.09115965,0.0
54270917579258,0.09101945,0.0
54270927283841,0.09087838,0.0
54270936988424,0.09074454,0.0
54270946723528,0.09061516,0.0
54270956428112,0.09045821,0.0
54270966132747,0.090368465,0.0
54270975867851,0.09029611,0.0
54270985572435,0.090205565,0.0
54270995277018,0.09015101,0.0
54271005012122,0.09007542,0.0
54271014716706,0.09004302,0.0
54271024421289,0.089995354,0.0
54271034125872,0.08994613,0.0
54271043860976,0.08993967,0.0
54271053565612,0.089908235,0.0
54271063270195,0.08992472,0.0
54271073005299,0.08989959,0.0
54271082709883,0.08993712,0.0
54271092414466,0.08992928,0.0
54271102247591,0.08995958,0.0
54271111952174,0.08996454,0.0
54271121656758,0.08998837,0.0
54271131361341,0.090016045,0.0
54271141065976,0.09003578,0.0
54271150801081,0.09006406,0.0
54271160505664,0.09006171,0.0
54271170210247,0.09011496,0.0
54271179914831,0.0901456,0.0
54271189619414,0.090102136,0.0
54271199354518,0.09007943,0.0
54271209059101,0.09016366,0.0
54271218763685,0.09016323,0.0
54271228468320,0.09012718,0.0
54271238172903,0.090147264,0.0
54271247908008,0.090139225,0.0
54271257612591,0.0901456,0.0
54271267317174,0.090106934,0.0
54271277021758,0.090166554,0.0
54271286726341,0.0901359,0.0
54271296461445,0.09018157,0.0
54271306166028,0.09016672,0.0
54271315870664,0.09018262,0.0
54271325575247,0.09020504,0.0
54271335310351,0.09025715,0.0
54271345014935,0.09025699,0.0
54271354719518,0.090320714,0.0
54271364454622,0.09031862,0.0
54271374159206,0.09032814,0.0
54271383863789,0.09039187,0.0
54271393598893,0.090390205,0.0
54271403303476,0.090463005,0.0
54271413008112,0.09048379,0.0
54271422712695,0.09055782,0.0
54271432447799,0.09058576,0.0
54271442152383,0.090627484,0.0
54271451856966,0.090689205,0.0
54271461592070,0.090743594,0.0
54271471296653,0.09076741,0.0
54271481001237,0.0908184,0.0
54271490736341,0.0908961,0.0
54271500440976,0.09092943,0.0
54271510145560,0.09095789,0.0
54271519850143,0.0910046,0.0
54271529585247,0.09100006,0.0
54271539289831,0.091073826,0.0
54271548994414,0.09110745,0.0
54271558729518,0.09115364,0.0
54271568434101,0.091191515,0.0
54271578138685,0.09127043,0.0
54271587873789,0.09130936,0.0
54271597578424,0.09135014,0.0
54271607283008,0.09138941,0.0
54271616987591,0.09144712,0.0
54271626722695,0.091493025,0.0
54271636427278,0.09150054,0.0
54271646131862,0.09156585,0.0
54271655866966,0.091570474,0.0
54271665571549,0.091603555,0.0
54271675276133,0.091570996,0.0
54271685011289,0.091520965,0.0
54271694715872,0.09138478,0.0
54271704420456,0.091298014,0.0
54271714125039,0.09117572,0.0
54271723829622,0.091057085,0.0
54271733564726,0.090925425,0.0
54271743269310,0.09082782,0.0
54271752973893,0.09066433,0.0
54271762678476,0.09057641,0.0
54271772383112,0.09049959,0.0
54271782118216,0.090384446,0.0
54271791822799,0.09035312,0.0
54271801527383,0.09029768,0.0
54271811231966,0.09021203,0.0
54271820936549,0.090189606,0.0
54271830641133,0.09017405,0.0
54271840345716,0.090166554,0.0
54271850050351,0.09012579,0.0
54271859754935,0.0901765,0.0
54271869459518,0.09016009,0.0
54271879194622,0.09015475,0.0
54271888899206,0.09020461,0.0
54271898603789,0.09021614,0.0
54271908308372,0.09018017,0.0
54271918012956,0.09021822,0.0
54271927748060,0.09024984,0.0
54271937452695,0.09025436,0.0
54271947157278,0.09030789,0.0
54271956861862,0.09034464,0.0
54271966566445,0.09034893,0.0
54271976301549,0.090348214,0.0
54271986006133,0.09035441,0.0
54271995710716,0.0904143,0.0
54272005415299,0.090346724,0.0
54272015119883,0.09038664,0.0
54272024855039,0.09040801,0.0
54272034559622,0.09040032,0.0
54272044264206,0.090407744,0.0
54272053968789,0.09037493,0.0
54272063673372,0.09036873,0.0
54272073784518,0.09039753,0.0
54272083489101,0.090410724,0.0
54272093193685,0.090388544,0.0
54272102898268,0.090427235,0.0
54272112602903,0.09044573,0.0
54272122338008,0.090479955,0.0
54272132042591,0.09051155,0.0
54272141747174,0.09049706,0.0
54272151451758,0.09057048,0.0
54272161156341,0.09061822,0.0
54272170891445,0.09060924,0.0
54272180596028,0.09065647,0.0
54272190300612,0.09073644,0.0
54272200005247,0.090743415,0.0
54272209740351,0.090789676,0.0
54272219444935,0.09082216,0.0
54272229149518,0.09087533,0.0
54272238884622,0.090930834,0.0
54272248589206,0.090988986,0.0
54272258293789,0.090989426,0.0
54272268028893,0.091061085,0.0
54272277733476,0.09108465,0.0
54272287438112,0.09114663,0.0
54272297142695,0.0911621,0.0
54272306847278,0.09122792,0.0
54272316582383,0.09126073,0.0
54272326286966,0.09131068,0.0
54272335991549,0.091324985,0.0
54272345696133,0.091401376,0.0
54272355400716,0.09144179,0.0
54272365135820,0.09150395,0.0
54272374840456,0.09156367,0.0
54272384545039,0.09159945,0.0
54272394249622,0.09160512,0.0
54272403984726,0.09168544,0.0
54272413689310,0.091740705,0.0
54272423393893,0.09175214,0.0
54272433128997,0.09177701,0.0
54272442833581,0.09176906,0.0
54272452538164,0.09168911,0.0
54272462273268,0.09153983,0.0
54272471977903,0.09144956,0.0
54272481713008,0.091358334,0.0
54272491417591,0.0911792,0.0
54272501152695,0.09105079,0.0
54272510857278,0.090872265,0.0
54272520592383,0.09077555,0.0
54272530296966,0.09065211,0.0
54272540032070,0.09057763,0.0
54272549736653,0.090488255,0.0
54272559471758,0.09035914,0.0
54272569176393,0.09034777,0.0
54272578880976,0.090320274,0.0
54272588585560,0.090249315,0.0
54272598290143,0.09021491,0.0
54272608025247,0.09018749,0.0
54272617729831,0.09015302,0.0
54272627434414,0.09015948,0.0
54272637138997,0.0901566,0.0
54272646843581,0.09017336,0.0
54272656578737,0.09014953,0.0
54272666283320,0.09016428,0.0
54272675987903,0.09019833,0.0
54272685692487,0.090186104,0.0
54272695397070,0.09016358,0.0
54272705101653,0.09017467,0.0
54272714806237,0.09019833,0.0
54272724510820,0.09022363,0.0
54272734215456,0.09024442,0.0
54272743920039,0.090280905,0.0
54272753655143,0.0902858,0.0
54272763359726,0.09028257,0.0
54272773064310,0.09029094,0.0
54272782768893,0.09029567,0.0
54272792473476,0.09031259,0.0
54272802178060,0.09032823,0.0
54272811882643,0.09035152,0.0
54272821587278,0.09035494,0.0
54272831291862,0.09034403,0.0
54272840996445,0.09037327,0.0
54272850701028,0.09038593,0.0
54272860375091,0.090403035,0.0
54272870079674,0.0904288,0.0
54272879784258,0.090423115,0.0
54272889488893,0.09048624,0.0
54272899193476,0.09051661,0.0
54272908898060,0.09054227,0.0
54272918602643,0.09056908,0.0
54272928307226,0.090579025,0.0
54272938011810,0.09063813,0.0
54272947716393,0.0906549,0.0
54272957420976,0.09071592,0.0
54272967125612,0.09073328,0.0
54272976830195,0.09080618,0.0
54272986565299,0.09084354,0.0
54272996269883,0.09089741,0.0
54273005974466,0.0909229,0.0
54273015709570,0.091007665,0.0
54273025414153,0.09101789,0.0
54273035118737,0.091026604,0.0
54273044853841,0.09115309,0.0
54273054558424,0.0911456,0.0
54273064263060,0.091215335,0.0
54273073967643,0.09123857,0.0
54273083672226,0.091285,0.0
54273093376810,0.09135302,0.0
54273103081393,0.09143691,0.0
54273112785976,0.09148115,0.0
54273122490560,0.091519915,0.0
54273132195143,0.0915325,0.0
54273142039362,0.09158732,0.0
54273151743945,0.091645725,0.0
54273161448528,0.091665626,0.0
54273171153112,0.09175309,0.0
54273180857695,0.091776066,0.0
54273190592799,0.091773525,0.0
54273200297383,0.09176463,0.0
54273210001966,0.091726296,0.0
54273219706549,0.09163219,0.0
54273229411185,0.09148195,0.0
54273239146289,0.0913551,0.0
54273248850872,0.0912005,0.0
54273258555456,0.09108282,0.0
54273268260039,0.09094857,0.0
54273277964622,0.09083804,0.0
54273287669206,0.090676285,0.0
54273297373789,0.09058541,0.0
54273307078424,0.09047943,0.0
54273316783008,0.0904315,0.0
54273326487591,0.09034883,0.0
54273336192174,0.09024956,0.0
54273345866237,0.09019893,0.0
54273355570820,0.09015958,0.0
54273365275403,0.09014115,0.0
54273374979987,0.09009934,0.0
54273384684622,0.090106495,0.0
54273394389206,0.09005769,0.0
54273404093789,0.0900824,0.0
54273413798372,0.09002679,0.0
54273423502956,0.09003333,0.0
54273433207539,0.09004477,0.0
54273442912122,0.090030536,0.0
54273452616706,0.090072185,0.0
54273462321341,0.09007481,0.0
54273472025924,0.09006161,0.0
54273481730508,0.09009479,0.0
54273491435091,0.0900776,0.0
54273501139674,0.09011303,0.0
54273510844258,0.090123,0.0
54273520548841,0.09013146,0.0
54273530253424,0.0901381,0.0
54273539958060,0.09015311,0.0
54273549662643,0.0901442,0.0
54273559367226,0.09016279,0.0
54273569071810,0.09019903,0.0
54273578776393,0.09014934,0.0
54273588480976,0.090201914,0.0
54273598185560,0.09021604,0.0
54273607890143,0.09021658,0.0
54273617594778,0.090198144,0.0
54273627329883,0.09021002,0.0
54273637034466,0.09027943,0.0
54273646739049,0.090283185,0.0
54273656443633,0.090328485,0.0
54273666148216,0.09033896,0.0
54273675883320,0.09036507,0.0
54273685587903,0.09040121,0.0
54273695292487,0.090409234,0.0
54273704997122,0.09045367,0.0
54273714701706,0.09046939,0.0
54273724436810,0.090500034,0.0
54273734141393,0.090586975,0.0
54273743845976,0.09058864,0.0
54273753550560,0.09063786,0.0
54273763255143,0.090697065,0.0
54273772959726,0.09074699,0.0
54273782664362,0.09077344,0.0
54273792368945,0.09083438,0.0
54273802073528,0.09086005,0.0
54273811778112,0.09089313,0.0
54273821513216,0.090980865,0.0
54273831217799,0.0910019,0.0
54273840922383,0.09104512,0.0
54273850626966,0.091102384,0.0
54273860331549,0.09113363,0.0
54273870066706,0.09120967,0.0
54273879771289,0.09122092,0.0
54273889475872,0.09130343,0.0
54273899180456,0.09131617,0.0
54273908885039,0.091379024,0.0
54273918620143,0.091416836,0.0
54273928324726,0.09147915,0.0
54273938029310,0.091563836,0.0
54273947733893,0.09157981,0.0
54273957438528,0.09165838,0.0
54273967173633,0.09167104,0.0
54273976878216,0.09173546,0.0
54273986582799,0.09178008,0.0
54273996287383,0.0918252,0.0
54274005991966,0.09185017,0.0
54274015727070,0.09194296,0.0
54274025431653,0.09198103,0.0
54274035136237,0.091948375,0.0
54274044840872,0.09193826,0.0
54274054545456,0.09187017,0.0
54274064280560,0.091728486,0.0
54274073985143,0.09161752,0.0
54274083689726,0.0914803,0.0
54274093394310,0.091346905,0.0
54274103098893,0.0911991,0.0
54274113073893,0.0910466,0.0
54274122778476,0.09095616,0.0
54274132483112,0.09080069,0.0
54274142187695,0.090688065,0.0
54274151922799,0.0905978,0.0
54274161627383,0.09054813,0.0
54274171331966,0.090467736,0.0
54274181067070,0.09045411,0.0
54274190771653,0.09038749,0.0
54274200476237,0.09035982,0.0
54274210211341,0.09032518,0.0
54274219915976,0.09027314,0.0
54274229620560,0.090273835,0.0
54274239325143,0.09026092,0.0
54274249060247,0.09020985,0.0
54274258764831,0.0901999,0.0
54274268469414,0.090214044,0.0
54274278204518,0.09021063,0.0
54274287909101,0.09021719,0.0
54274297613685,0.090173975,0.0
54274307348789,0.09022583,0.0
54274317053424,0.09022975,0.0
54274326758008,0.090259165,0.0
54274336462591,0.0902693,0.0
54274346167174,0.090279244,0.0
54274355902278,0.09029575,0.0
54274365606862,0.09028702,0.0
54274375311445,0.09031242,0.0
54274385016028,0.09033093,0.0
54274394720664,0.09027182,0.0
54274404455768,0.09026416,0.0
54274414160351,0.09025018,0.0
54274423864935,0.09026878,0.0
54274433569518,0.090336785,0.0
54274443304622,0.0903195,0.0
54274453009206,0.09030762,0.0
54274462713789,0.09029104,0.0
54274472448893,0.09031722,0.0
54274482153476,0.09033905,0.0
54274491858112,0.09033862,0.0
54274501593216,0.09040417,0.0
54274511297799,0.09041561,0.0
54274521002383,0.09043473,0.0
54274530706966,0.0904356,0.0
54274540442070,0.0904809,0.0
54274550146653,0.09051748,0.0
54274559851237,0.09056323,0.0
54274569586341,0.09058899,0.0
54274579290976,0.09063657,0.0
54274588995560,0.090652704,0.0
54274598730664,0.0907359,0.0
54274608435247,0.090755805,0.0
54274618139831,0.09077702,0.0
54274627844414,0.090839006,0.0
54274637579518,0.090825565,0.0
54274647284101,0.090857506,0.0
54274656988685,0.0909483,0.0
54274666723789,0.090979636,0.0
54274676428424,0.09100932,0.0
54274686133008,0.09106511,0.0
54274695868112,0.09110387,0.0
54274705572695,0.091199204,0.0
54274715277278,0.09122172,0.0
54274724981862,0.091253854,0.0
54274734716966,0.091280036,0.0
54274744421549,0.091358334,0.0
54274754126133,0.09138392,0.0
54274763861289,0.091426335,0.0
54274773565872,0.0914919,0.0
54274783270456,0.091496795,0.0
54274793005560,0.09154864,0.0
54274802679622,0.091598146,0.0
54274812384206,0.09165113,0.0
54274822088789,0.09169548,0.0
54274831793372,0.09171835,0.0
54274841498008,0.091758676,0.0
54274851202591,0.09180721,0.0
54274860907174,0.0918492,0.0
54274870611758,0.09186703,0.0
54274880316341,0.09190902,0.0
54274890020924,0.09197107,0.0
54274899725508,0.09197736,0.0
54274909430091,0.09195476,0.0
54274919134726,0.091934755,0.0
54274928869831,0.091881424,0.0
54274938574414,0.09171906,0.0
54274948278997,0.0916458,0.0
54274958014101,0.09147934,0.0
54274967718685,0.09134795,0.0
54274977423268,0.09120155,0.0
54274987158372,0.09105909,0.0
54274996862956,0.090950474,0.0
54275006598060,0.09082976,0.0
54275016302695,0.090723515,0.0
54275026037799,0.090668865,0.0
54275035772903,0.090594664,0.0
54275045477487,0.09053992,0.0
54275055212591,0.09046799,0.0
54275064917174,0.09042696,0.0
54275074652278,0.09039528,0.0
54275084455924,0.09036813,0.0
54275094160508,0.09040392,0.0
54275103865091,0.09035755,0.0
54275113569674,0.0903799,0.0
54275123304831,0.09033155,0.0
54275133009414,0.090384625,0.0
54275142713997,0.09034063,0.0
54275152449101,0.09037337,0.0
54275162153685,0.09035966,0.0
54275171858268,0.09040985,0.0
54275181593372,0.09040478,0.0
54275191297956,0.09042547,0.0
54275201002539,0.09044259,0.0
54275210707174,0.09040103,0.0
54275220442278,0.090471745,0.0
54275230146862,0.09043987,0.0
54275239851445,0.090464324,0.0
54275249586549,0.09048615,0.0
54275259291133,0.0904576,0.0
54275268995716,0.090430014,0.0
54275278730820,0.09044711,0.0
54275288435403,0.09044067,0.0
54275298139987,0.09043081,0.0
54275307844622,0.09044573,0.0
54275317549206,0.09042863,0.0
54275327284310,0.09043727,0.0
54275336988893,0.09047383,0.0
54275346693476,0.09048404,0.0
54275356398060,0.09047053,0.0
54275366102643,0.09050281,0.0
54275375837747,0.09054349,0.0
54275385542331,0.09055267,0.0
54275395246966,0.090598926,0.0
54275404951549,0.09062015,0.0
54275414686653,0.09064626,0.0
54275424391237,0.09066171,0.0
54275434095820,0.090674266,0.0
54275443830924,0.09075136,0.0
54275453535508,0.09078592,0.0
54275463240091,0.090784356,0.0
54275472975195,0.09084119,0.0
54275482679831,0.09086005,0.0
54275492384414,0.090903506,0.0
54275502088997,0.09096262,0.0
54275511793581,0.09099403,0.0
54275521498164,0.090993345,0.0
54275531202747,0.0910645,0.0
54275540907331,0.09107924,0.0
54275550611914,0.09113223,0.0
54275560316549,0.091149434,0.0
54275570051653,0.09123883,0.0
54275579756237,0.09125689,0.0
54275589460820,0.09127872,0.0
54275599165403,0.09130518,0.0
54275608900508,0.09137868,0.0
54275618605091,0.091393955,0.0
54275628309674,0.091407135,0.0
54275638044778,0.091468856,0.0
54275647749362,0.091522545,0.0
54275657453997,0.09150647,0.0
54275667189101,0.09158024,0.0
54275676893685,0.09159866,0.0
54275686598268,0.09165314,0.0
54275696333372,0.09171747,0.0
54275706037956,0.09175824,0.0
54275715773060,0.091776505,0.0
54275725477643,0.091817,0.0
54275735182226,0.09179543,0.0
54275744917331,0.0917681,0.0
54275754621966,0.09166152,0.0
54275764357070,0.09158872,0.0
54275774061653,0.091535896,0.0
54275783766237,0.09136654,0.0
54275793470820,0.091222756,0.0
54275803175403,0.09112315,0.0
54275812910508,0.09099552,0.0
54275822615091,0.09089138,0.0
54275832319674,0.090758696,0.0
54275842024310,0.09066275,0.0
54275851728893,0.090601206,0.0
54275861463997,0.0904886,0.0
54275871168581,0.09051374,0.0
54275880873164,0.090464845,0.0
54275890577747,0.09042233,0.0
54275900312851,0.09039299,0.0
54275910017435,0.09035127,0.0
54275919722018,0.09037398,0.0
54275929457174,0.09037843,0.0
54275939161758,0.0902974,0.0
54275948866341,0.090375096,0.0
54275958601445,0.09033818,0.0
54275968306028,0.090389594,0.0
54275978010612,0.090405315,0.0
54275987715195,0.090396404,0.0
54275997450299,0.090410635,0.0
54276007154883,0.09046249,0.0
54276016859518,0.090507716,0.0
54276026594622,0.090513304,0.0
54276036299206,0.09049025,0.0
54276046003789,0.090510145,0.0
54276055738893,0.09053844,0.0
54276065443476,0.09054325,0.0
54276075148060,0.09052691,0.0
54276084852643,0.09055826,0.0
54276094557226,0.09052849,0.0
54276104261862,0.090561055,0.0
54276113966445,0.09055625,0.0
54276123671028,0.09055808,0.0
54276133375612,0.09055792,0.0
54276143080195,0.09054829,0.0
54276152671706,0.090567335,0.0
54276162376289,0.09058147,0.0
54276172111393,0.090614125,0.0
54276181815976,0.090606004,0.0
54276191551133,0.09060505,0.0
54276201286237,0.09062819,0.0
54276210990820,0.09068903,0.0
54276220725924,0.09070378,0.0
54276230430508,0.09076044,0.0
54276240165612,0.09077284,0.0
54276249900716,0.0907861,0.0
54276259605299,0.0908404,0.0
54276269309883,0.09088614,0.0
54276279014466,0.090905614,0.0
54276288719101,0.09096969,0.0
54276298423685,0.09099814,0.0
54276308128268,0.09103037,0.0
54276317832851,0.09107889,0.0
54276327537435,0.091143236,0.0
54276337242018,0.091183305,0.0
54276346977122,0.0912397,0.0
54276356681706,0.09128632,0.0
54276366416810,0.091324374,0.0
54276376121445,0.09137684,0.0
54276385856549,0.09141717,0.0
54276395561133,0.091433406,0.0
54276405296237,0.09150586,0.0
54276415000820,0.09155851,0.0
54276424735924,0.091603294,0.0
54276434440508,0.0916232,0.0
54276444175612,0.09172097,0.0
54276453880195,0.091745585,0.0
54276463584778,0.09177632,0.0
54276473289414,0.09185427,0.0
54276483024518,0.0918705,0.0
54276492729101,0.091908574,0.0
54276502433685,0.09194183,0.0
54276512168789,0.09194435,0.0
54276521873372,0.09191137,0.0
54276531577956,0.09184694,0.0
54276541313060,0.09173687,0.0
54276551017643,0.09162128,0.0
54276560722226,0.09146448,0.0
54276570426862,0.0913606,0.0
54276580161966,0.091231674,0.0
54276589866549,0.09106493,0.0
54276599571133,0.090960175,0.0
54276609306237,0.090850525,0.0
54276619010820,0.09079308,0.0
54276628715403,0.090733625,0.0
54276638450508,0.090584874,0.0
54276648155091,0.090567775,0.0
54276657859726,0.09051435,0.0
54276667564310,0.09047444,0.0
54276677299414,0.09042322,0.0
54276687003997,0.090430446,0.0
54276696708581,0.0904136,0.0
54276706443685,0.09037894,0.0
54276716148268,0.09036716,0.0
54276725852851,0.0903504,0.0
54276735587956,0.090352505,0.0
54276745292539,0.090342976,0.0
54276754997174,0.090383135,0.0
54276764701758,0.09038847,0.0
54276774436862,0.09041805,0.0
54276784141445,0.09040635,0.0
54276793846028,0.09045708,0.0
54276803581133,0.09043299,0.0
54276813285716,0.090513304,0.0
54276822990299,0.09049609,0.0
54276832725403,0.090522386,0.0
54276842430039,0.09051033,0.0
54276852134622,0.09050309,0.0
54276861869726,0.09052403,0.0
54276871574310,0.09052926,0.0
54276881309414,0.09055336,0.0
54276891013997,0.090558335,0.0
54276900718581,0.090611584,0.0
54276910453685,0.09055336,0.0
54276920158268,0.09060801,0.0
54276929893372,0.0906322,0.0
54276939598008,0.09060409,0.0
54276949302591,0.09063657,0.0
54276959007174,0.09068544,0.0
54276968742278,0.09065777,0.0
54276978446862,0.0907166,0.0
54276988151445,0.0907126,0.0
54276997886549,0.09074009,0.0
54277007591133,0.090811685,0.0
54277017295716,0.0908418,0.0
54277027030820,0.09084739,0.0
54277036735456,0.09089452,0.0
54277046440039,0.09095554,0.0
54277056144622,0.09093171,0.0
54277065879726,0.09104171,0.0
54277075584310,0.09109102,0.0
54277085288893,0.09110429,0.0
54277095023997,0.09116524,0.0
54277104728581,0.09123394,0.0
54277114433164,0.09126056,0.0
54277124522278,0.09131163,0.0
54277134226862,0.09133974,0.0
54277143931445,0.09139335,0.0
54277153666549,0.09145681,0.0
54277163371133,0.09150133,0.0
54277173106237,0.09153084,0.0
54277182810820,0.09156697,0.0
54277192515403,0.09166284,0.0
54277202250508,0.091671385,0.0
54277211955091,0.09176436,0.0
54277221690247,0.0918026,0.0
54277231394831,0.091868155,0.0
54277241099414,0.091922365,0.0
54277250803997,0.09194559,0.0
54277260508581,0.09199377,0.0
54277270243685,0.092044756,0.0
54277279948268,0.092032805,0.0
54277289652851,0.09204318,0.0
54277299357435,0.09196593,0.0
54277309062070,0.09190001,0.0
54277318797174,0.091805644,0.0
54277328501758,0.09169453,0.0
54277338206341,0.09154595,0.0
54277347910924,0.091393,0.0
54277357646028,0.09125996,0.0
54277367350612,0.09111862,0.0
54277377055195,0.09098968,0.0
54277386790299,0.09087392,0.0
54277396494935,0.0908205,0.0
54277406199518,0.09075275,0.0
54277415934622,0.09068911,0.0
54277425639206,0.09060173,0.0
54277435343789,0.09055476,0.0
54277445048372,0.09049312,0.0
54277454752956,0.090470605,0.0
54277464457539,0.09045473,0.0
54277474162122,0.0904445,0.0
54277483866758,0.09040087,0.0
54277493571341,0.09042076,0.0
54277503275924,0.090411946,0.0
54277512980508,0.090406716,0.0
54277522685091,0.090415865,0.0
54277532389674,0.09041761,0.0
54277542094258,0.090403646,0.0
54277551829362,0.0904204,0.0
54277561533997,0.09047383,0.0
54277571238581,0.09050875,0.0
54277580973685,0.09046817,0.0
54277590678268,0.09048867,0.0
54277600382851,0.09054027,0.0
54277610117956,0.09049148,0.0
54277619822539,0.09054971,0.0
54277629527122,0.09058505,0.0
54277639262226,0.090559825,0.0
54277648966810,0.09054192,0.0
54277658701966,0.09059657,0.0
54277668406549,0.0905614,0.0
54277678111133,0.090586804,0.0
54277687846237,0.090586536,0.0
54277697550820,0.09059334,0.0
54277707285924,0.09060897,0.0
54277716990508,0.09068179,0.0
54277726725612,0.090663,0.0
54277736430195,0.09069007,0.0
54277746165299,0.0907085,0.0
54277755900403,0.09067383,0.0
54277765605039,0.090735294,0.0
54277775340143,0.09079325,0.0
54277785044726,0.09083019,0.0
54277794779831,0.090837784,0.0
54277804514935,0.090886936,0.0
54277814219518,0.09090011,0.0
54277823924101,0.090974934,0.0
54277833659206,0.090994306,0.0
54277843363789,0.09105638,0.0
54277853098893,0.09109287,0.0
54277862803528,0.09113756,0.0
54277872508112,0.0911647,0.0
54277882243216,0.091244325,0.0
54277891947799,0.09128343,0.0
54277901682903,0.0913078,0.0
54277911387487,0.091345675,0.0
54277921092070,0.09144328,0.0
54277930796653,0.09146553,0.0
54277940531758,0.09152298,0.0
54277950236341,0.09158496,0.0
54277959940976,0.09161848,0.0
54277969676081,0.09166832,0.0
54277979380664,0.09173275,0.0
54277989085247,0.09175877,0.0
54277998820351,0.09184179,0.0
54278008524935,0.091863796,0.0
54278018229518,0.09193669,0.0
54278027964622,0.09199613,0.0
54278037669206,0.092004955,0.0
54278047404310,0.09206563,0.0
54278057108945,0.09207933,0.0
54278066813528,0.09208605,0.0
54278076548633,0.09205305,0.0
54278086253216,0.09194053,0.0
54278095988320,0.09187007,0.0
54278105692903,0.09177021,0.0
54278115397487,0.091625035,0.0
54278125102070,0.0914596,0.0
54278134837174,0.091334164,0.0
54278144541810,0.09121891,0.0
54278154246393,0.091087446,0.0
54278163981497,0.09101577,0.0
54278173686081,0.09096183,0.0
54278183390664,0.09086083,0.0
54278193223164,0.090823025,0.0
54278202927747,0.09075459,0.0
54278212632331,0.09070552,0.0
54278222367435,0.090687275,0.0
54278232072018,0.0906727,0.0
54278241807174,0.090661004,0.0
54278251511758,0.09065576,0.0
54278261216341,0.0906286,0.0
54278270951445,0.090606004,0.0
54278280656028,0.09063874,0.0
54278290391133,0.09065761,0.0
54278300095716,0.09065026,0.0
54278309800299,0.09068441,0.0
54278319504883,0.09069051,0.0
54278329209518,0.09075171,0.0
54278338914101,0.09074761,0.0
54278348618685,0.0907208,0.0
54278358323268,0.09077004,0.0
54278368027851,0.0908026,0.0
54278377732435,0.09081727,0.0
54278387467539,0.09081456,0.0
54278397172122,0.09083472,0.0
54278406907226,0.09089225,0.0
54278416611862,0.090871915,0.0
54278426346966,0.09085872,0.0
54278436051549,0.09087584,0.0
54278445786653,0.09089182,0.0
54278455491237,0.09093216,0.0
54278465226341,0.09094672,0.0
54278474930924,0.090947606,0.0
54278484666028,0.090947606,0.0
54278494370612,0.09096489,0.0
54278504075195,0.09094158,0.0
54278513779831,0.0909978,0.0
54278523514935,0.09103796,0.0
54278533219518,0.09104538,0.0
54278542924101,0.09106998,0.0
54278552659206,0.09112577,0.0
54278562363789,0.09114812,0.0
54278572068372,0.09117205,0.0
54278581803476,0.09123245,0.0
54278591508060,0.091265365,0.0
54278601212643,0.0913214,0.0
54278610917278,0.09135493,0.0
54278620652383,0.09141237,0.0
54278630356966,0.09149582,0.0
54278640061549,0.09149783,0.0
54278649796653,0.091514945,0.0
54278659501237,0.09160016,0.0
54278669205820,0.09162293,0.0
54278678940924,0.091650255,0.0
54278688645508,0.0917641,0.0
54278698380612,0.091804415,0.0
54278708085247,0.0918458,0.0
54278717820351,0.091895305,0.0
54278727524935,0.0919434,0.0
54278737260039,0.09193913,0.0
54278746964622,0.092012376,0.0
54278756699726,0.09206108,0.0
54278766404310,0.09209862,0.0
54278776139414,0.09217177,0.0
54278785843997,0.09224232,0.0
54278795548581,0.09223454,0.0
54278805283737,0.09230106,0.0
54278814988320,0.09236662,0.0
54278824723424,0.09243646,0.0
54278834428008,0.0924245,0.0
54278844132591,0.092511445,0.0
54278853867695,0.09250438,0.0
54278863572278,0.09252961,0.0
54278873307383,0.09247303,0.0
54278883011966,0.09241018,0.0
54278892716549,0.09227897,0.0
54278902451706,0.09220877,0.0
54278912156289,0.092044845,0.0
54278921891393,0.09189722,0.0
54278931595976,0.09182616,0.0
54278941300560,0.09169094,0.0
54278951035664,0.09158478,0.0
54278960740247,0.0915049,0.0
54278970475351,0.09143952,0.0
54278980179935,0.09141185,0.0
54278989884518,0.09133363,0.0
54278999619674,0.091324635,0.0
54279009324258,0.09129391,0.0
54279019059362,0.09130988,0.0
54279028763945,0.0912686,0.0
54279038468528,0.09126344,0.0
54279048203633,0.09127986,0.0
54279057908216,0.09126352,0.0
54279067643320,0.09126379,0.0
54279077347903,0.09128483,0.0
54279087052487,0.09128238,0.0
54279096757122,0.09134323,0.0
54279106492226,0.09134925,0.0
54279116196810,0.091372564,0.0
54279125901393,0.09142905,0.0
54279135636497,0.091441005,0.0
54279145341081,0.09145603,0.0
54279155045664,0.09149068,0.0
54279164780768,0.09153302,0.0
54279174485351,0.09154734,0.0
54279184189987,0.091517225,0.0
54279193925091,0.091554664,0.0
54279203629674,0.09157344,0.0
54279213364778,0.091568545,0.0
54279223069362,0.09159543,0.0
54279232773945,0.09159186,0.0
54279242509049,0.09160478,0.0
54279252213633,0.09165348,0.0
54279261718997,0.09165515,0.0
54279271423581,0.09163708,0.0
54279281128216,0.091695204,0.0
54279290832799,0.09172376,0.0
54279300567903,0.09174122,0.0
54279310272487,0.091731355,0.0
54279319977070,0.09176776,0.0
54279329712174,0.091804504,0.0
54279339416758,0.09183411,0.0
54279349121341,0.091855496,0.0
54279358856445,0.091894954,0.0
54279368561028,0.09195659,0.0
54279378265664,0.091999546,0.0
54279388000768,0.09195283,0.0
54279397705351,0.09206972,0.0
54279407440456,0.092081696,0.0
54279417145039,0.092129886,0.0
54279426849622,0.09216916,0.0
54279436584726,0.092193425,0.0
54279446289310,0.09227958,0.0
54279456024414,0.09231137,0.0
54279465728997,0.0923454,0.0
54279475433633,0.09241551,0.0
54279485138216,0.09245296,0.0
54279494842799,0.092478536,0.0
54279504577903,0.09255701,0.0
54279514282487,0.092592105,0.0
54279523987070,0.09267234,0.0
54279533691653,0.09272227,0.0
54279543396237,0.092736326,0.0
54279553131341,0.09274375,0.0
54279562835976,0.09283437,0.0
54279572571081,0.09290175,0.0
54279582275664,0.09293772,0.0
54279592010768,0.092987746,0.0
54279601745872,0.09302195,0.0
54279611450456,0.093048066,0.0
54279621185560,0.093059324,0.0
54279630890143,0.09299299,0.0
54279640625247,0.092968896,0.0
54279650360351,0.09285165,0.0
54279660064935,0.09274122,0.0
54279669769570,0.092665784,0.0
54279679474153,0.092513554,0.0
54279689178737,0.09242118,0.0
54279698883320,0.09232053,0.0
54279708587903,0.09219717,0.0
54279718292487,0.09211093,0.0
54279727997070,0.09203428,0.0
54279737701653,0.09201228,0.0
54279747406289,0.091963746,0.0
54279757110872,0.09190787,0.0
54279766845976,0.091895916,0.0
54279776550560,0.091881245,0.0
54279786285664,0.09192716,0.0
54279795990247,0.09187305,0.0
54279805725351,0.09187094,0.0
54279815429935,0.09188072,0.0
54279825165039,0.091903515,0.0
54279834869622,0.091894425,0.0
54279844604778,0.091925256,0.0
54279854309362,0.09196593,0.0
54279864013945,0.09201088,0.0
54279873718528,0.091997005,0.0
54279883453633,0.09206169,0.0
54279893158216,0.09210256,0.0
54279902862799,0.09212445,0.0
54279912597903,0.092157885,0.0
54279922302487,0.09213546,0.0
54279932007122,0.09217239,0.0
54279941742226,0.092202686,0.0
54279951446810,0.0922341,0.0
54279961151393,0.092280895,0.0
54279970886497,0.09222807,0.0
54279980591081,0.09222564,0.0
54279990326185,0.09228387,0.0
54280000030768,0.0922761,0.0
54280009735351,0.09228875,0.0
54280019470456,0.09228666,0.0
54280029175091,0.092287354,0.0
54280038910195,0.09230089,0.0
54280048614778,0.09239805,0.0
54280058319362,0.09238461,0.0
54280068023945,0.0924423,0.0
54280077759049,0.092457496,0.0
54280087463633,0.09248483,0.0
54280097168216,0.09250638,0.0
54280106903320,0.092573084,0.0
54280116607903,0.09257771,0.0
54280126312539,0.092584,0.0
54280136047643,0.09269408,0.0
54280145752226,0.09269259,0.0
54280155456810,0.092777975,0.0
54280165191914,0.09279255,0.0
54280174896497,0.09284615,0.0
54280184631601,0.0928836,0.0
54280194336185,0.09293398,0.0
54280204040768,0.09299796,0.0
54280213775872,0.09304308,0.0
54280223480508,0.0930911,0.0
54280233565508,0.09311721,0.0
54280243270091,0.09318783,0.0
54280253005195,0.09322729,0.0
54280262709778,0.09326327,0.0
54280272444883,0.093345046,0.0
54280282149466,0.09337631,0.0
54280291884570,0.0934321,0.0
54280301589153,0.093488656,0.0
54280311324258,0.09355814,0.0
54280321028893,0.093620285,0.0
54280330763997,0.09363873,0.0
54280340468581,0.09367749,0.0
54280350203685,0.09375945,0.0
54280359938789,0.093816034,0.0
54280369643372,0.093813755,0.0
54280379378476,0.09389459,0.0
54280389113581,0.093893796,0.0
54280398818164,0.09386875,0.0
54280408553268,0.09379551,0.0
54280418288372,0.093691885,0.0
54280428023476,0.0936182,0.0
54280437728112,0.09346429,0.0
54280447463216,0.09337675,0.0
54280457167799,0.09322992,0.0
54280466902903,0.093109444,0.0
54280476607487,0.092992544,0.0
54280486342591,0.092912756,0.0
54280496047174,0.09281552,0.0
54280505782278,0.092744015,0.0
54280515486862,0.09271223,0.0
54280525221966,0.092689626,0.0
54280534926549,0.09263559,0.0
54280544661706,0.092613585,0.0
54280554366289,0.09258224,0.0
54280564101393,0.09256076,0.0
54280573836497,0.09254803,0.0
54280583541081,0.09255728,0.0
54280593276185,0.09254069,0.0
54280602980768,0.09254732,0.0
54280612715872,0.09254173,0.0
54280622450976,0.092532046,0.0
54280632155560,0.092555,0.0
54280641860143,0.092550114,0.0
54280651595299,0.09257604,0.0
54280661299883,0.09260241,0.0
54280671034987,0.09262109,0.0
54280680739570,0.09264257,0.0
54280690444153,0.092654526,0.0
54280700179258,0.09265898,0.0
54280709883841,0.09267443,0.0
54280719618945,0.09269589,0.0
54280729323528,0.09271233,0.0
54280739058633,0.09269311,0.0
54280748763268,0.09271958,0.0
54280758498372,0.09271897,0.0
54280768202956,0.09272541,0.0
54280777938060,0.09272087,0.0
54280787642643,0.09274147,0.0
54280797377747,0.092768446,0.0
54280807082331,0.0927365,0.0
54280816817435,0.0928025,0.0
54280826522018,0.09281018,0.0
54280836226601,0.092804246,0.0
54280845961706,0.09285672,0.0
54280855666341,0.0928718,0.0
54280865401445,0.09288202,0.0
54280875106028,0.0929077,0.0
54280884810612,0.09293431,0.0
54280894545716,0.0929695,0.0
54280904250299,0.09303995,0.0
54280913985403,0.09304457,0.0
54280923689987,0.093115464,0.0
54280933394570,0.093118936,0.0
54280943129674,0.093170464,0.0
54280952834310,0.09322345,0.0
54280962569414,0.09320755,0.0
54280972273997,0.0933069,0.0
54280981978581,0.09329223,0.0
54280991713685,0.09338216,0.0
54281001418268,0.09341008,0.0
54281011153372,0.09349109,0.0
54281020857956,0.093522966,0.0
54281030562539,0.09355866,0.0
54281040267174,0.0936093,0.0
54281050002278,0.09363523,0.0
54281059706862,0.09370716,0.0
54281069411445,0.09371589,0.0
54281079146549,0.09380965,0.0
54281088851133,0.0938375,0.0
54281098555716,0.09387303,0.0
54281108290820,0.09392384,0.0
54281117995403,0.09396076,0.0
54281127699987,0.09402066,0.0
54281137404622,0.0940582,0.0
54281147139726,0.09411503,0.0
54281156844310,0.09415457,0.0
54281166548893,0.094214715,0.0
54281176283997,0.09421603,0.0
54281185988581,0.094220124,0.0
54281195693164,0.09416931,0.0
54281205428268,0.09412523,0.0
54281215132851,0.09403217,0.0
54281224837487,0.0938918,0.0
54281234542070,0.09379752,0.0
54281244246653,0.09362553,0.0
54281253981758,0.09347949,0.0
54281263686341,0.09336478,0.0
54281273390924,0.09328657,0.0
54281283095508,0.09317491,0.0
54281292800091,0.093087,0.0
54281302555039,0.09295728,0.0
54281312259674,0.092933185,0.0
54281321964258,0.092886396,0.0
54281331699362,0.09287521,0.0
54281341403945,0.0927915,0.0
54281351139049,0.09275011,0.0
54281360843633,0.09272463,0.0
54281370548216,0.09271913,0.0
54281380283320,0.09270552,0.0
54281389987903,0.09271931,0.0
54281399723008,0.09270734,0.0
54281409427643,0.092695385,0.0
54281419132226,0.09270594,0.0
54281428836810,0.0927062,0.0
54281438571914,0.09271799,0.0
54281448276497,0.092675395,0.0
54281457981081,0.092728734,0.0
54281467716185,0.09271573,0.0
54281477420768,0.092730656,0.0
54281487125351,0.09277587,0.0
54281496860456,0.092761815,0.0
54281506565091,0.092795774,0.0
54281516269674,0.09281236,0.0
54281525974258,0.0928032,0.0
54281535709362,0.09280678,0.0
54281545413945,0.092764355,0.0
54281555118528,0.09281236,0.0
54281564853633,0.09282004,0.0
54281574558216,0.09284702,0.0
54281584262799,0.092778414,0.0
54281593997956,0.09278634,0.0
54281603702539,0.09278713,0.0
54281613407122,0.09282702,0.0
54281623111706,0.09281035,0.0
54281632846810,0.0928273,0.0
54281642551393,0.092855915,0.0
54281652255976,0.09285653,0.0
54281661991081,0.09287338,0.0
54281671695664,0.09285094,0.0
54281681400299,0.09288603,0.0
54281691135403,0.09294899,0.0
54281700839987,0.092961036,0.0
54281710544570,0.09299796,0.0
54281720249153,0.09303235,0.0
54281729984258,0.09306334,0.0
54281739688841,0.093073204,0.0
54281749393424,0.09307976,0.0
54281759128528,0.09312629,0.0
54281768833112,0.09319081,0.0
54281778537747,0.093189836,0.0
54281788272851,0.09326779,0.0
54281797977435,0.09328063,0.0
54281807682018,0.09332996,0.0
54281817417122,0.09338599,0.0
54281827121706,0.09340398,0.0
54281836856810,0.09339394,0.0
54281846561393,0.09348822,0.0
54281856265976,0.0934904,0.0
54281866001081,0.093508825,0.0
54281875705716,0.09356268,0.0
54281885440820,0.09362964,0.0
54281895145403,0.09361681,0.0
54281904849987,0.093666226,0.0
54281914554570,0.093717724,0.0
54281924289674,0.09374277,0.0
54281933994258,0.09378956,0.0
54281943698841,0.09382493,0.0
54281953433945,0.09384561,0.0
54281963137672,0.09379926,0.0
54281972842255,0.093698174,0.0
54281982577672,0.09369686,0.0
54281992282255,0.09357622,0.0
54282001986839,0.093436986,0.0
54282011691422,0.09330403,0.0
54282021396005,0.09314759,0.0
54282031131110,0.093062036,0.0
54282040835693,0.09297089,0.0
54282050540328,0.09283733,0.0
54282060244912,0.09274409,0.0
54282069949495,0.09264414,0.0
54282079684599,0.09253868,0.0
54282089389182,0.092513554,0.0
54282099093766,0.09243968,0.0
54282108798349,0.09239063,0.0
54282118502932,0.092388354,0.0
54282128238037,0.092362605,0.0
54282137942672,0.092384875,0.0
54282147647255,0.09236644,0.0
54282157351839,0.09236279,0.0
54282167056422,0.09235903,0.0
54282176791526,0.092356235,0.0
54282186465589,0.09234558,0.0
54282196170172,0.09231311,0.0
54282205874755,0.09236899,0.0
54282215579391,0.09236916,0.0
54282225283974,0.09239779,0.0
54282234988557,0.0924375,0.0
54282244693141,0.09244073,0.0
54282254397724,0.09242983,0.0
54282264102307,0.092448756,0.0
54282274005380,0.09247479,0.0
54282283709964,0.09247758,0.0
54282293445068,0.092452005,0.0
54282303149703,0.09246998,0.0
54282312884807,0.09247619,0.0
54282322619912,0.09247959,0.0
54282332324495,0.09245373,0.0
54282342059599,0.09248176,0.0
54282351764182,0.09245925,0.0
54282361499287,0.09248605,0.0
54282371234391,0.09244747,0.0
54282380938974,0.09246571,0.0
54282390643557,0.09246755,0.0
54282400348193,0.09248708,0.0
54282410083297,0.09248334,0.0
54282419787880,0.09248089,0.0
54282429492464,0.09250141,0.0
54282439227568,0.09256444,0.0
54282448932151,0.09254854,0.0
54282458636735,0.092560686,0.0
54282468371839,0.09259727,0.0
54282478076422,0.09262869,0.0
54282487781005,0.092656106,0.0
54282497516162,0.092668936,0.0
54282507220745,0.0927139,0.0
54282516955849,0.092757896,0.0
54282526660432,0.09277002,0.0
54282536365016,0.09282362,0.0
54282546100120,0.09286047,0.0
54282555804703,0.092882894,0.0
54282565539807,0.09292996,0.0
54282575244391,0.09296514,0.0
54282584948974,0.09294943,0.0
54282594684130,0.09302075,0.0
54282604388714,0.09304771,0.0
54282614123818,0.09307714,0.0
54282623828401,0.093125165,0.0
54282633532985,0.09315361,0.0
54282643268089,0.09313239,0.0
54282652972672,0.09318241,0.0
54282662707776,0.093249984,0.0
54282672412360,0.093257315,0.0
54282682116943,0.093276165,0.0
54282691821578,0.093298346,0.0
54282701526162,0.09329502,0.0
54282711230745,0.093197,0.0
54282720935328,0.09311432,0.0
54282730639912,0.09301534,0.0
54282740344495,0.09286099,0.0
54282750049078,0.09276034,0.0
54282759784182,0.09267469,0.0
54282769488818,0.0925042,0.0
54282779193401,0.09241254,0.0
54282788897985,0.092289016,0.0
54282798602568,0.09215056,0.0
54282808337672,0.09208387,0.0
54282818042255,0.092011675,0.0
54282827746839,0.09189513,0.0
54282837451422,0.09186291,0.0
54282847156005,0.0918492,0.0
54282856891162,0.091794476,0.0
54282866595745,0.09177168,0.0
54282876300328,0.09176479,0.0
54282886035432,0.09174585,0.0
54282895740016,0.09174996,0.0
54282905475120,0.09177596,0.0
54282915179703,0.09174847,0.0
54282924884287,0.091744445,0.0
54282934619391,0.09176,0.0
54282944323974,0.09179815,0.0
54282954059130,0.09179482,0.0
54282963763714,0.091821365,0.0
54282973498818,0.09183228,0.0
54282983203401,0.09182528,0.0
54282992938505,0.09187288,0.0
54283002673610,0.09185968,0.0
54283012378193,0.091909535,0.0
54283022113297,0.09185882,0.0
54283031817880,0.09185183,0.0
54283041552985,0.09182327,0.0
54283051288089,0.09185663,0.0
54283060992724,0.09188316,0.0
54283070697307,0.0918459,0.0
54283080401891,0.09183106,0.0
54283090106474,0.09186186,0.0
54283099841578,0.091826774,0.0
54283109546162,0.09183987,0.0
54283119250745,0.091845185,0.0
54283128955328,0.09186108,0.0
54283138659912,0.091847986,0.0
54283148395068,0.09187183,0.0
54283158099651,0.09187244,0.0
54283167834755,0.09192577,0.0
54283177569860,0.09193179,0.0
54283187274443,0.091937125,0.0
54283197009547,0.09196191,0.0
54283206744651,0.091996655,0.0
54283216449235,0.09207356,0.0
54283226184339,0.092077926,0.0
54283235919443,0.0921015,0.0
54283245772724,0.0921098,0.0
54283255477307,0.0921825,0.0
54283265181943,0.09217876,0.0
54283274917047,0.09223035,0.0
54283284621630,0.092239335,0.0
54283294356735,0.09228588,0.0
54283304061318,0.09232394,0.0
54283313765901,0.09235789,0.0
54283323501005,0.09239029,0.0
54283333205589,0.09244763,0.0
54283342940693,0.09246063,0.0
54283352645276,0.09250045,0.0
54283362380432,0.09253527,0.0
54283372085016,0.092588805,0.0
54283381820120,0.0926046,0.0
54283391524703,0.09265836,0.0
54283401259807,0.09267949,0.0
54283410964391,0.09267844,0.0
54283420699495,0.09266414,0.0
54283430404078,0.09254864,0.0
54283440139182,0.092478625,0.0
54283449843766,0.0923194,0.0
54283459548401,0.09218828,0.0
54283469283505,0.0920341,0.0
54283478988089,0.09190657,0.0
54283488723193,0.09174629,0.0
54283498427776,0.09159379,0.0
54283508132360,0.091448344,0.0
54283517867464,0.091344625,0.0
54283527572047,0.091271736,0.0
54283537307151,0.091163225,0.0
54283547011735,0.09108684,0.0
54283556716370,0.09101604,0.0
54283566451474,0.090986356,0.0
54283576156057,0.09090334,0.0
54283585891162,0.09091382,0.0
54283595595745,0.090836644,0.0
54283605300328,0.09083324,0.0
54283615035432,0.09083255,0.0
54283624740016,0.090831056,0.0
54283634475120,0.090794906,0.0
54283644179703,0.090797625,0.0
54283653884339,0.09084879,0.0
54283663619443,0.09082094,0.0
54283673324026,0.09084354,0.0
54283683059130,0.09081404,0.0
54283692763714,0.09087802,0.0
54283702468297,0.09087366,0.0
54283712203401,0.090852015,0.0
54283721907985,0.09087838,0.0
54283731643089,0.09088091,0.0
54283741347672,0.09083927,0.0
54283751052307,0.090864934,0.0
54283760787412,0.09086633,0.0
54283770491995,0.09086101,0.0
54283780227099,0.09085454,0.0
54283789931682,0.09089182,0.0
54283799636266,0.090832196,0.0
54283809371370,0.09087899,0.0
54283819075953,0.090841435,0.0
54283828811057,0.09086685,0.0
54283838515641,0.09087741,0.0
54283848220276,0.09084486,0.0
54283857955380,0.090879165,0.0
54283867659964,0.09092744,0.0
54283877395068,0.09092168,0.0
54283887099651,0.09096611,0.0
54283896804235,0.090950474,0.0
54283906539339,0.09099107,0.0
54283916243922,0.09099692,0.0
54283925979026,0.0910623,0.0
54283935683610,0.0910802,0.0
54283945388245,0.09111208,0.0
54283955123349,0.09116697,0.0
54283964827932,0.09120652,0.0
54283974563037,0.09123534,0.0
54283984267620,0.091260485,0.0
54283993972203,0.09129575,0.0
54284003707307,0.0913078,0.0
54284013411891,0.09136602,0.0
54284023146995,0.09142057,0.0
54284032851578,0.091453314,0.0
54284042556214,0.09147496,0.0
54284052260797,0.091526724,0.0
54284061995901,0.09159543,0.0
54284071700485,0.091656715,0.0
54284081405068,0.091652356,0.0
54284091140172,0.09170011,0.0
54284100844755,0.09178233,0.0
54284110549339,0.09174942,0.0
54284120284443,0.09176854,0.0
54284129989026,0.0916912,0.0
54284139693662,0.091570474,0.0
54284149398245,0.091446504,0.0
54284159133349,0.091303155,0.0
54284168837932,0.09116793,0.0
54284178542516,0.09098104,0.0
54284188277620,0.09086913,0.0
54284197982203,0.09072238,0.0
54284207686787,0.09063159,0.0
54284217421891,0.09045113,0.0
54284227126526,0.09037571,0.0
54284236831110,0.090249926,0.0
54284246535693,0.09017642,0.0
54284256270797,0.09011601,0.0
54284265975380,0.09007603,0.0
54284275679964,0.08999371,0.0
54284285415068,0.08996183,0.0
54284295119651,0.089967854,0.0
54284304824235,0.08989856,0.0
54284314672203,0.08992447,0.0
54284324376839,0.08986974,0.0
54284334111943,0.08986599,0.0
54284343816526,0.08986328,0.0
54284353551630,0.08985558,0.0
54284363256214,0.08986537,0.0
54284372991318,0.08983928,0.0
54284382695901,0.08988022,0.0
54284392431005,0.08989707,0.0
54284402135589,0.08989802,0.0
54284411870693,0.08994133,0.0
54284421575328,0.08993888,0.0
54284431279912,0.0899525,0.0
54284441015016,0.08998096,0.0
54284450719599,0.090018146,0.0
54284460454703,0.089961305,0.0
54284470159287,0.08996281,0.0
54284479863870,0.09000304,0.0
54284489598974,0.089977644,0.0
54284499303557,0.08996761,0.0
54284509038662,0.08999116,0.0
54284518743297,0.090031765,0.0
54284528447880,0.090023294,0.0
54284538152464,0.090044424,0.0
54284547887568,0.090045735,0.0
54284557592151,0.09007846,0.0
54284567296735,0.09007062,0.0
54284577031839,0.090126134,0.0
54284586736422,0.09015355,0.0
54284596441005,0.09014971,0.0
54284606176110,0.09024084,0.0
54284615880745,0.09023176,0.0
54284625585328,0.090296626,0.0
54284635320432,0.09027147,0.0
54284645025016,0.0903716,0.0
54284654760120,0.0903793,0.0
54284664464703,0.090418145,0.0
54284674169287,0.09047794,0.0
54284683904391,0.090518266,0.0
54284693608974,0.09056411,0.0
54284703344078,0.09060975,0.0
54284713048714,0.090690166,0.0
54284722753297,0.09071347,0.0
54284732457880,0.09073992,0.0
54284742162464,0.09080853,0.0
54284751897568,0.09085856,0.0
54284761602151,0.09091041,0.0
54284771306735,0.09098985,0.0
54284781011318,0.09103568,0.0
54284790715953,0.091102116,0.0
54284800451057,0.09113835,0.0
54284810155641,0.09119465,0.0
54284819860224,0.0912239,0.0
54284829564807,0.091271654,0.0
54284839299912,0.09129217,0.0
54284849004495,0.09138409,0.0
54284858709078,0.091405466,0.0
54284868444182,0.09137833,0.0
54284878148766,0.09136871,0.0
54284887853401,0.09131041,0.0
54284897588505,0.091208085,0.0
54284907293089,0.09107977,0.0
54284916997672,0.090926915,0.0
54284926702255,0.090762444,0.0
54284936406839,0.09060662,0.0
54284946111422,0.09044102,0.0
54284955816005,0.09034543,0.0
54284965520641,0.09022522,0.0
54284975225224,0.09011503,0.0
54284984929807,0.09000059,0.0
54284994664912,0.08997057,0.0
54285004369495,0.08990134,0.0
54285014074078,0.08989182,0.0
54285023778662,0.08982155,0.0
54285033513766,0.08984451,0.0
54285043218349,0.0897813,0.0
54285052922985,0.08976342,0.0
54285062658089,0.08977223,0.0
54285072362672,0.0897538,0.0
54285082067255,0.089731455,0.0
54285091802360,0.089765854,0.0
54285101506943,0.08977336,0.0
54285111211526,0.08975678,0.0
54285120916110,0.08979712,0.0
54285130651214,0.08976786,0.0
54285140355797,0.08979719,0.0
54285150060432,0.08983107,0.0
54285159795537,0.089867555,0.0
54285169500120,0.08982094,0.0
54285179204703,0.089913025,0.0
54285188939807,0.08992762,0.0
54285198644391,0.0899098,0.0
54285208348974,0.08989689,0.0
54285218084078,0.0899463,0.0
54285227788662,0.08994193,0.0
54285237523766,0.089927085,0.0
54285247228401,0.08997564,0.0
54285256932985,0.089982525,0.0
54285266668089,0.0899738,0.0
54285276372672,0.08997248,0.0
54285286285745,0.09000678,0.0
54285295990328,0.090023905,0.0
54285305694912,0.09006973,0.0
54285315399495,0.090093315,0.0
54285325134599,0.090106755,0.0
54285334839235,0.09015005,0.0
54285344543818,0.09018462,0.0
54285354278922,0.09025071,0.0
54285363983505,0.090301596,0.0
54285373688089,0.090321064,0.0
54285383423193,0.09035573,0.0
54285393127776,0.09041596,0.0
54285402832360,0.09048387,0.0
54285412536943,0.09051617,0.0
54285422272047,0.09058793,0.0
54285431976682,0.09063543,0.0
54285441681266,0.090672605,0.0
54285451416370,0.090719156,0.0
54285461120953,0.09077222,0.0
54285470825537,0.09081298,0.0
54285480560641,0.09085567,0.0
54285490265224,0.09091225,0.0
54285500000328,0.090973094,0.0
54285509704912,0.09098784,0.0
54285519440016,0.09108247,0.0
54285529144651,0.091161735,0.0
54285538879755,0.09116244,0.0
54285548584339,0.09121622,0.0
54285558319443,0.09127183,0.0
54285568024026,0.091317564,0.0
54285577759130,0.091393694,0.0
54285587463714,0.091411486,0.0
54285597198818,0.09147295,0.0
54285606933922,0.09149487,0.0
54285616638505,0.09157474,0.0
54285626373610,0.091639265,0.0
54285636108766,0.09167418,0.0
54285645813349,0.091744624,0.0
54285655548453,0.0917813,0.0
54285665283557,0.09176208,0.0
54285675018662,0.09171539,0.0
54285684723245,0.09166519,0.0
54285694458349,0.091597185,0.0
54285704162932,0.09145052,0.0
54285713898037,0.09133686,0.0
54285723602620,0.09120617,0.0
54285733337724,0.091120794,0.0
54285743042360,0.09101927,0.0
54285752777464,0.090898015,0.0
54285762482047,0.09078313,0.0
54285772217151,0.09072177,0.0
54285781921735,0.0906851,0.0
54285791626318,0.09065691,0.0
54285801361422,0.090608805,0.0
54285811066005,0.09060672,0.0
54285820801110,0.0905813,0.0
54285830505693,0.090584695,0.0
54285840210328,0.09056333,0.0
54285849945432,0.09058942,0.0
54285859650016,0.09057921,0.0
54285869385120,0.09061866,0.0
54285879089703,0.090626694,0.0
54285888824807,0.090637,0.0
54285898529391,0.090655155,0.0
54285908264495,0.09069078,0.0
54285917969078,0.09077161,0.0
54285927704182,0.090788715,0.0
54285937408766,0.09082679,0.0
54285947143922,0.09086807,0.0
54285956848505,0.09090892,0.0
54285966583610,0.09099753,0.0
54285976288193,0.09107506,0.0
