54212737000270,0.09203194,0.0
54212753667249,0.092038445,0.0
54212770334229,0.09207457,0.0
54212787001208,0.0920804,0.0
54212803668187,0.092119604,0.0
54212820335166,0.09218638,0.0
54212837002145,0.092205144,0.0
54212853669124,0.092262104,0.0
54212870336104,0.092263564,0.0
54212887003083,0.092324555,0.0
54212903670062,0.092379786,0.0
54212920337041,0.09245769,0.0
54212937004020,0.09249282,0.0
54212953670999,0.09258703,0.0
54212970337979,0.09263775,0.0
54212987004958,0.09271349,0.0
54213003671937,0.09278101,0.0
54213020338916,0.092846125,0.0
54213037005895,0.092894986,0.0
54213053672874,0.09298653,0.0
54213070339854,0.09304628,0.0
54213087006833,0.093119025,0.0
54213103673812,0.093154304,0.0
54213120340791,0.093213916,0.0
54213137007770,0.09326571,0.0
54213153674749,0.09332514,0.0
54213170341729,0.093406744,0.0
54213187008708,0.09347708,0.0
54213203675687,0.093491085,0.0
54213220342666,0.09351953,0.0
54213237009645,0.09355067,0.0
54213253676624,0.09346054,0.0
54213270343604,0.09332295,0.0
54213287010583,0.093110204,0.0
54213303677562,0.092903495,0.0
54213320344541,0.092709616,0.0
54213337011520,0.09252801,0.0
54213353678499,0.09237882,0.0
54213370345479,0.0922751,0.0
54213387012458,0.09220671,0.0
54213403679437,0.09212831,0.0
54213420346416,0.09211772,0.0
54213437013395,0.092132546,0.0
54213453680374,0.09210571,0.0
54213470347354,0.0920887,0.0
54213487014333,0.092120424,0.0
54213503681312,0.09209961,0.0
54213520348291,0.092125535,0.0
54213537015270,0.0921344,0.0
54213553682249,0.09214889,0.0
54213570349229,0.09213795,0.0
54213587016208,0.092117,0.0
54213603683187,0.092119835,0.0
54213620350166,0.09207657,0.0
54213637017145,0.09202398,0.0
54213653684124,0.09203604,0.0
54213670351104,0.09203164,0.0
54213687018083,0.0920023,0.0
54213703685062,0.091966875,0.0
54213720352041,0.09201776,0.0
54213737019020,0.091989174,0.0
54213753685999,0.09201521,0.0
54213770352979,0.0920277,0.0
54213787019958,0.09205969,0.0
54213803686937,0.09207058,0.0
54213820353916,0.092103474,0.0
54213837020895,0.09211986,0.0
54213853687874,0.09217791,0.0
54213870354854,0.09220202,0.0
54213887021833,0.092209585,0.0
54213903688812,0.09226693,0.0
54213920355791,0.09230836,0.0
54213937022770,0.09237475,0.0
54213953689749,0.09234648,0.0
54213970356729,0.09235957,0.0
54213987023708,0.09226929,0.0
54214003690687,0.092133,0.0
54214020357666,0.09187992,0.0
54214037024645,0.09163113,0.0
54214053691624,0.09140089,0.0
54214070358604,0.091157414,0.0
54214087025583,0.09097588,0.0
54214103692562,0.09082897,0.0
54214120359541,0.090695634,0.0
54214137026520,0.090592116,0.0
54214153693499,0.090543486,0.0
54214170360479,0.09044902,0.0
54214187027458,0.09042599,0.0
54214203694437,0.090418726,0.0
54214220361416,0.090380386,0.0
54214237028395,0.090367645,0.0
54214253695374,0.09036854,0.0
54214270362354,0.09037002,0.0
54214287029333,0.09035674,0.0
54214303696312,0.09032034,0.0
54214320363291,0.09035091,0.0
54214337030270,0.09025998,0.0
54214353697249,0.0902137,0.0
54214370364229,0.09013121,0.0
54214387031208,0.090132475,0.0
54214403698187,0.09014508,0.0
54214420365166,0.0901016,0.0
54214437032145,0.09006974,0.0
54214453699124,0.0900695,0.0
54214470366104,0.090072535,0.0
54214487033083,0.09011175,0.0
54214503700062,0.090120584,0.0
54214520367041,0.09013045,0.0
54214537034020,0.090162754,0.0
54214553700999,0.090221904,0.0
54214570367979,0.09024877,0.0
54214587034958,0.09026478,0.0
54214603701937,0.090285584,0.0
54214620368916,0.090340406,0.0
54214637035895,0.09038633,0.0
54214653702874,0.09038955,0.0
54214670369854,0.09034655,0.0
54214687036833,0.09022479,0.0
54214703703812,0.09002014,0.0
54214720370791,0.08977418,0.0
54214737037770,0.0894679,0.0
54214753704749,0.08922011,0.0
54214770371729,0.088985346,0.0
54214787038708,0.08879249,0.0
54214803705687,0.088646576,0.0
54214820372666,0.08855135,0.0
54214837039645,0.08845018,0.0
54214853706624,0.088385895,0.0
54214870373604,0.088346004,0.0
54214887040583,0.088281624,0.0
54214903707562,0.08827291,0.0
54214920374541,0.08827697,0.0
54214937041520,0.08826965,0.0
54214953708499,0.088284224,0.0
54214970375479,0.08828803,0.0
54214987042458,0.08825783,0.0
54215003709437,0.08826515,0.0
54215020376416,0.08825919,0.0
54215037043395,0.088206545,0.0
54215053710374,0.08819916,0.0
54215070377354,0.0881833,0.0
54215087044333,0.08818697,0.0
54215103711312,0.088180564,0.0
54215120378291,0.08817415,0.0
54215137045270,0.08814078,0.0
54215153712249,0.08819218,0.0
54215170379229,0.088239715,0.0
54215187046208,0.08826923,0.0
54215203713187,0.088325456,0.0
54215220380166,0.08835642,0.0
54215237047145,0.08840654,0.0
54215253714124,0.08845504,0.0
54215270381104,0.08851949,0.0
54215287048083,0.08860196,0.0
54215303715062,0.088656396,0.0
54215320382041,0.08873516,0.0
54215337049020,0.08875113,0.0
54215353715999,0.08867189,0.0
54215370382979,0.08851181,0.0
54215387049958,0.08828579,0.0
54215403716937,0.08801702,0.0
54215420383916,0.08777607,0.0
54215437050895,0.08753386,0.0
54215453717874,0.0873198,0.0
54215470384854,0.08717862,0.0
54215487051833,0.08705952,0.0
54215503718812,0.08697588,0.0
54215520385791,0.08691963,0.0
54215537052770,0.08684592,0.0
54215553719749,0.08683109,0.0
54215570386729,0.08677122,0.0
54215587053708,0.08680849,0.0
54215603720687,0.08678206,0.0
54215620387666,0.086817294,0.0
54215637054645,0.08682725,0.0
54215653721624,0.086820826,0.0
54215670388604,0.08685306,0.0
54215687055583,0.08684926,0.0
54215703722562,0.08689302,0.0
54215720389541,0.0868737,0.0
54215737056520,0.08686497,0.0
54215753723499,0.086871155,0.0
54215770390479,0.08687701,0.0
54215787057458,0.0869196,0.0
54215803724437,0.08695043,0.0
54215820391416,0.08701294,0.0
54215837058395,0.08707842,0.0
54215853725374,0.08706968,0.0
54215870392354,0.08714536,0.0
54215887059333,0.08721745,0.0
54215903726312,0.08727905,0.0
54215920393291,0.08737705,0.0
54215937060270,0.08742207,0.0
54215953727249,0.087523095,0.0
54215970394229,0.08760049,0.0
54215987061208,0.087670945,0.0
54216003728187,0.08776069,0.0
54216020395166,0.08785304,0.0
54216037062145,0.08793286,0.0
54216053729124,0.087986104,0.0
54216070396104,0.088009655,0.0
54216087063083,0.08792332,0.0
54216103730062,0.08778282,0.0
54216120397041,0.08758057,0.0
54216137064020,0.08734732,0.0
54216153730999,0.08712177,0.0
54216170397979,0.08691166,0.0
54216187064958,0.0867397,0.0
54216203731937,0.08659792,0.0
54216220398916,0.086500615,0.0
54216237065895,0.08645536,0.0
54216253732874,0.08642505,0.0
54216270399854,0.08639314,0.0
54216287066833,0.086361036,0.0
54216303733812,0.086356044,0.0
54216320400791,0.086331934,0.0
54216337067770,0.08639161,0.0
54216353734749,0.08641236,0.0
54216370401729,0.08644416,0.0
54216387068708,0.08648187,0.0
54216403735687,0.08649705,0.0
54216420402666,0.08655797,0.0
54216437069645,0.086550266,0.0
54216453736624,0.08659159,0.0
54216470403604,0.08660747,0.0
54216487070583,0.08662908,0.0
54216503737562,0.08668277,0.0
54216520404541,0.08673935,0.0
54216537071520,0.08679319,0.0
54216553738499,0.08686328,0.0
54216570405479,0.08691254,0.0
54216587072458,0.08701357,0.0
54216603739437,0.08710961,0.0
54216620406416,0.08714401,0.0
54216637073395,0.08728567,0.0
54216653740374,0.08734201,0.0
54216670407354,0.08745886,0.0
54216687074333,0.08754383,0.0
54216703741312,0.0876407,0.0
54216720408291,0.08773253,0.0
54216737075270,0.08783807,0.0
54216753742249,0.08793907,0.0
54216770409229,0.08803956,0.0
54216787076208,0.088135704,0.0
54216803743187,0.08828725,0.0
54216820410166,0.08834694,0.0
54216837077145,0.088489756,0.0
54216853744124,0.0885529,0.0
54216870411104,0.08868234,0.0
54216887078083,0.088751465,0.0
54216903745062,0.08885892,0.0
54216920412041,0.088988386,0.0
54216937079020,0.0891017,0.0
54216953745999,0.08919362,0.0
54216970412979,0.089299425,0.0
54216987079958,0.089429766,0.0
54217003746937,0.08953542,0.0
54217020413916,0.08963012,0.0
54217037080895,0.08974675,0.0
54217053747874,0.08988141,0.0
54217070414854,0.08995475,0.0
54217087081833,0.09007521,0.0
54217103748812,0.09020586,0.0
54217120415791,0.09030356,0.0
54217137082770,0.090413846,0.0
54217153749749,0.09052693,0.0
54217170416729,0.090633646,0.0
54217187083708,0.090715475,0.0
54217203750687,0.09064599,0.0
54217220417666,0.09051418,0.0
54217237084645,0.09038235,0.0
54217253751624,0.09017617,0.0
54217270418604,0.08999044,0.0
54217287085583,0.08984723,0.0
54217303752562,0.08972418,0.0
54217320419541,0.08968554,0.0
54217337086520,0.08963913,0.0
54217353753499,0.089601934,0.0
54217370420479,0.089614525,0.0
54217387087458,0.08963526,0.0
54217403754437,0.08965556,0.0
54217420421416,0.0896778,0.0
54217437088395,0.08967359,0.0
54217453755374,0.08973405,0.0
54217470422354,0.08979089,0.0
54217487089333,0.08980124,0.0
54217503756312,0.08981046,0.0
54217520423291,0.08984115,0.0
54217537090270,0.08988903,0.0
54217553757249,0.08989849,0.0
54217570424229,0.08994676,0.0
54217587091208,0.089939356,0.0
54217603758187,0.089959696,0.0
54217620425166,0.08999485,0.0
54217637092145,0.09006582,0.0
54217653759124,0.09008777,0.0
54217670426104,0.09016015,0.0
54217687093083,0.090221204,0.0
54217703760062,0.0903257,0.0
54217720427041,0.090377435,0.0
54217737094020,0.09045756,0.0
54217753760999,0.09052603,0.0
54217770427979,0.090627015,0.0
54217787094958,0.09068829,0.0
54217803761937,0.09075828,0.0
54217820428916,0.09085703,0.0
54217837095895,0.09094457,0.0
54217853762874,0.091038875,0.0
54217870429854,0.09110895,0.0
54217887096833,0.09122956,0.0
54217903763812,0.09131308,0.0
54217920430791,0.09137194,0.0
54217937097770,0.09146495,0.0
54217953764749,0.09154634,0.0
54217970431729,0.09162999,0.0
54217987098708,0.091714375,0.0
54218003765687,0.09180927,0.0
54218020432666,0.09185861,0.0
54218037099645,0.09201078,0.0
54218053766624,0.09203656,0.0
54218070433604,0.09216868,0.0
54218087100583,0.092241876,0.0
54218103767562,0.092366815,0.0
54218120434541,0.09241265,0.0
54218137101520,0.09250054,0.0
54218153768499,0.092569746,0.0
54218170435479,0.0926162,0.0
54218187102458,0.09260669,0.0
54218203769437,0.0925501,0.0
54218220436416,0.09240736,0.0
54218237103395,0.09223023,0.0
54218253770374,0.09209796,0.0
54218270437354,0.09196916,0.0
54218287104333,0.09186478,0.0
54218303771312,0.09177669,0.0
54218320438291,0.091745034,0.0
54218337105270,0.09168786,0.0
54218353772249,0.09173846,0.0
54218370439229,0.09173878,0.0
54218387106208,0.0917191,0.0
54218403773187,0.09173192,0.0
54218420440166,0.09176347,0.0
54218437107145,0.09178597,0.0
54218453774124,0.09182902,0.0
54218470441104,0.09185173,0.0
54218487108083,0.09193717,0.0
54218503775062,0.09193771,0.0
54218520442041,0.09195566,0.0
54218537109020,0.09196615,0.0
54218553775999,0.09200041,0.0
54218570442979,0.09198904,0.0
54218587109958,0.09197852,0.0
54218603776937,0.09202662,0.0
54218620443916,0.09203328,0.0
54218637110895,0.09206927,0.0
54218653777874,0.09211683,0.0
54218670444854,0.09214634,0.0
54218687111833,0.09218902,0.0
54218703778812,0.09224101,0.0
54218720445791,0.09230575,0.0
54218737112770,0.0923767,0.0
54218753779749,0.092421904,0.0
54218770446729,0.09245534,0.0
54218787113708,0.092563815,0.0
54218803780687,0.09260106,0.0
54218820447666,0.09267167,0.0
54218837114645,0.092724115,0.0
54218853781624,0.092785686,0.0
54218870448604,0.09283981,0.0
54218887115583,0.09292571,0.0
54218903782562,0.09298288,0.0
54218920449541,0.09301639,0.0
54218937116520,0.093070656,0.0
54218953783499,0.09311429,0.0
54218970450479,0.0932078,0.0
54218987117458,0.09322155,0.0
54219003784437,0.093306825,0.0
54219020451416,0.093398236,0.0
54219037118395,0.09339878,0.0
54219053785374,0.0934665,0.0
54219070452354,0.09354473,0.0
54219087119333,0.09356578,0.0
54219103786312,0.09360598,0.0
54219120453291,0.093584836,0.0
54219137120270,0.09350298,0.0
54219153787249,0.09335975,0.0
54219170454229,0.09319543,0.0
54219187121208,0.09306678,0.0
54219203788187,0.09293732,0.0
54219220455166,0.09280616,0.0
54219237122145,0.09275447,0.0
54219253789124,0.09265761,0.0
54219270456104,0.092630535,0.0
54219287123083,0.09258799,0.0
54219303790062,0.09259344,0.0
54219320457041,0.09258275,0.0
54219337124020,0.09258276,0.0
54219353790999,0.092585765,0.0
54219370457979,0.09260596,0.0
54219387124958,0.09266168,0.0
54219403791937,0.09264734,0.0
54219420458916,0.09263885,0.0
54219437125895,0.092664324,0.0
54219453792874,0.0926483,0.0
54219470459854,0.092669174,0.0
54219487126833,0.092667565,0.0
54219503793812,0.09261068,0.0
54219520460791,0.092591085,0.0
54219537127770,0.09256781,0.0
54219553794749,0.09260021,0.0
54219570461729,0.09261035,0.0
54219587128708,0.092613876,0.0
54219603795687,0.0926512,0.0
54219620462666,0.09263447,0.0
54219637129645,0.092690825,0.0
54219653796624,0.0927103,0.0
54219670463604,0.09274819,0.0
54219687130583,0.09277716,0.0
54219703797562,0.09278652,0.0
54219720464541,0.09282084,0.0
54219737131520,0.09289959,0.0
54219753798499,0.09292301,0.0
54219770465479,0.09297088,0.0
54219787132458,0.09303391,0.0
54219803799437,0.09306246,0.0
54219820466416,0.09309343,0.0
54219837133395,0.09313515,0.0
54219853800374,0.09317663,0.0
54219870467354,0.09321321,0.0
54219887134333,0.093263105,0.0
54219903801312,0.093299456,0.0
54219920468291,0.09333376,0.0
54219937135270,0.09339865,0.0
54219953802249,0.093395725,0.0
54219970469229,0.093464,0.0
54219987136208,0.093463585,0.0
54220003803187,0.09343199,0.0
54220020470166,0.09330102,0.0
54220037137145,0.09316118,0.0
54220053804124,0.092995286,0.0
54220070471104,0.09283811,0.0
54220087138083,0.092672095,0.0
54220103805062,0.092537366,0.0
54220120472041,0.09239625,0.0
54220137139020,0.092318654,0.0
54220153805999,0.092239186,0.0
54220170472979,0.09217045,0.0
54220187139958,0.0921285,0.0
54220203806937,0.092058666,0.0
54220220473916,0.09210399,0.0
54220237140895,0.092113875,0.0
54220253807874,0.09212964,0.0
54220270474854,0.09213339,0.0
54220287141833,0.09209792,0.0
54220303808812,0.09209864,0.0
54220320475791,0.092100695,0.0
54220337142770,0.092072494,0.0
54220353809749,0.092022344,0.0
54220370476729,0.09203043,0.0
54220387143708,0.092024766,0.0
54220403810687,0.09193738,0.0
54220420477666,0.09196754,0.0
54220437144645,0.091938466,0.0
54220453811624,0.09193252,0.0
54220470478604,0.091916636,0.0
54220487145583,0.09191808,0.0
54220503812562,0.09190872,0.0
54220520479541,0.09197003,0.0
54220537146520,0.09197785,0.0
54220553813499,0.092006065,0.0
54220570480479,0.09203032,0.0
54220587147458,0.092035055,0.0
54220603814437,0.092055485,0.0
54220620481416,0.09212567,0.0
54220637148395,0.092129424,0.0
54220653815374,0.092133544,0.0
54220670482354,0.09218495,0.0
54220687149333,0.09224237,0.0
54220703816312,0.092257336,0.0
54220720483291,0.09228012,0.0
54220737150270,0.09230283,0.0
54220753817249,0.092355296,0.0
54220770484229,0.092381544,0.0
54220787151208,0.0923302,0.0
54220803818187,0.092243515,0.0
54220820485166,0.092117876,0.0
54220837152145,0.091848105,0.0
54220853819124,0.09161524,0.0
54220870486104,0.09142895,0.0
54220887153083,0.09119555,0.0
54220903820062,0.09102877,0.0
54220920487041,0.09085119,0.0
54220937154020,0.090719625,0.0
54220953820999,0.090628445,0.0
54220970487979,0.09051634,0.0
54220987154958,0.0904446,0.0
54221003821937,0.09036797,0.0
54221020488916,0.09032197,0.0
54221037155895,0.090283364,0.0
54221053822874,0.09027574,0.0
54221070489854,0.09022939,0.0
54221087156833,0.09024884,0.0
54221103823812,0.090180606,0.0
54221120490791,0.09017185,0.0
54221137157770,0.09015412,0.0
54221153824749,0.09009972,0.0
54221170491729,0.09005825,0.0
54221187158708,0.0900247,0.0
54221203825687,0.089983314,0.0
54221220492666,0.08997478,0.0
54221237159645,0.08994893,0.0
54221253826624,0.089932084,0.0
54221270493604,0.08989875,0.0
54221287160583,0.08992333,0.0
54221303827562,0.089919135,0.0
54221320494541,0.08994039,0.0
54221337161520,0.08995642,0.0
54221353828499,0.08996531,0.0
54221370495479,0.09000067,0.0
54221387162458,0.090018176,0.0
54221403829437,0.09006864,0.0
54221420496416,0.09010422,0.0
54221437163395,0.0901359,0.0
54221453830374,0.09019163,0.0
54221470497354,0.09021473,0.0
54221487164333,0.09023578,0.0
54221503831312,0.090293646,0.0
54221520498291,0.0903417,0.0
54221537165270,0.0903869,0.0
54221553832249,0.09043321,0.0
54221570499229,0.0904484,0.0
54221587166208,0.090414286,0.0
54221603833187,0.09030053,0.0
54221620500166,0.090089254,0.0
54221637167145,0.08983075,0.0
54221653834124,0.08954502,0.0
54221670501104,0.08928177,0.0
54221687168083,0.0890348,0.0
54221703835062,0.08881957,0.0
54221720502041,0.08863242,0.0
54221737169020,0.08848044,0.0
54221753835999,0.088339716,0.0
54221770502979,0.08823409,0.0
54221787169958,0.08814942,0.0
54221803836937,0.08811639,0.0
54221820503916,0.08805013,0.0
54221837170895,0.08803568,0.0
54221853837874,0.088004686,0.0
54221870504854,0.08796782,0.0
54221887171833,0.08799595,0.0
54221903838812,0.08797505,0.0
54221920505791,0.087973334,0.0
54221937172770,0.08797194,0.0
54221953839749,0.087920025,0.0
54221970506394,0.08791785,0.0
54221987173373,0.08787036,0.0
54222003840352,0.0878803,0.0
54222020507331,0.087857924,0.0
54222037174622,0.087825015,0.0
54222053841601,0.087862134,0.0
54222070508581,0.087868795,0.0
54222087175560,0.0878977,0.0
54222103842539,0.087955214,0.0
54222120509518,0.08800252,0.0
54222137176497,0.08806374,0.0
54222153843476,0.08809567,0.0
54222170510456,0.0881879,0.0
54222187177435,0.088259295,0.0
54222203844414,0.088333175,0.0
54222220511393,0.08837277,0.0
54222237178372,0.08844248,0.0
54222253845351,0.08848901,0.0
54222270512331,0.08856707,0.0
54222287179310,0.088613704,0.0
54222303846289,0.08869214,0.0
54222320513268,0.088776544,0.0
54222337180247,0.08882767,0.0
54222353847226,0.08889869,0.0
54222370514206,0.08896601,0.0
54222387181185,0.08903407,0.0
54222403848164,0.08910424,0.0
54222420515143,0.08917016,0.0
54222437182122,0.089136675,0.0
54222453849101,0.08901192,0.0
54222470516081,0.088790074,0.0
54222487183060,0.088519566,0.0
54222503850039,0.08824422,0.0
54222520517018,0.08800614,0.0
54222537183997,0.08773656,0.0
54222553850976,0.08757906,0.0
54222570517956,0.08744852,0.0
54222587184935,0.087364174,0.0
54222603851914,0.087294616,0.0
54222620518893,0.087245114,0.0
54222637185872,0.08718833,0.0
54222653852851,0.08716974,0.0
54222670519831,0.087143004,0.0
54222687186810,0.08715963,0.0
54222703853789,0.08716836,0.0
54222720520768,0.08717916,0.0
54222737187747,0.08718609,0.0
54222753854726,0.087186664,0.0
54222770521706,0.08717859,0.0
54222787188685,0.08720107,0.0
54222803855664,0.08718598,0.0
54222820522643,0.08715366,0.0
54222837189622,0.08715396,0.0
54222853856601,0.08715832,0.0
54222870523581,0.08717156,0.0
54222887190560,0.08722165,0.0
54222903857539,0.08725387,0.0
54222920524518,0.08730298,0.0
54222937191497,0.087335005,0.0
54222953858476,0.08739886,0.0
54222970525456,0.08743426,0.0
54222987192435,0.08752714,0.0
54223003859414,0.08758598,0.0
54223020526393,0.08767216,0.0
54223037193372,0.08772279,0.0
54223053860351,0.08778796,0.0
54223070527331,0.08787231,0.0
54223087194310,0.08798428,0.0
54223103861289,0.08802794,0.0
54223120528268,0.08813515,0.0
54223137195247,0.08822787,0.0
54223153862226,0.088277504,0.0
54223170529206,0.08836304,0.0
54223187196185,0.08845672,0.0
54223203863164,0.08852333,0.0
54223220530143,0.08860321,0.0
54223237197122,0.08871547,0.0
54223253864101,0.08878247,0.0
54223270531081,0.08884833,0.0
54223287198060,0.08893748,0.0
54223303865039,0.0890141,0.0
54223320532018,0.0890843,0.0
54223337198997,0.08912654,0.0
54223353865976,0.089098305,0.0
54223370532956,0.088908345,0.0
54223387199935,0.088708214,0.0
54223403866914,0.088451564,0.0
54223420533893,0.08820362,0.0
54223437200872,0.08802063,0.0
54223453867851,0.087860234,0.0
54223470534831,0.08775677,0.0
54223487201810,0.0876654,0.0
54223503868789,0.08761613,0.0
54223520535768,0.08759187,0.0
54223537202747,0.087579474,0.0
54223553869726,0.087579325,0.0
54223570536706,0.08756748,0.0
54223587203685,0.08762887,0.0
54223603870664,0.08764051,0.0
54223620537643,0.08768323,0.0
54223637204622,0.087739736,0.0
54223653871601,0.08771674,0.0
54223670538581,0.087760895,0.0
54223687205560,0.08778417,0.0
54223703872539,0.08777856,0.0
54223720539518,0.08777391,0.0
54223737206497,0.0877998,0.0
54223753873476,0.0877994,0.0
54223770540456,0.087839745,0.0
54223787207435,0.0878773,0.0
54223803874414,0.08789395,0.0
54223820541393,0.08798042,0.0
54223837208372,0.087972105,0.0
54223853875351,0.088054,0.0
54223870542331,0.088124506,0.0
54223887209310,0.088217676,0.0
54223903876289,0.08826684,0.0
54223920543268,0.08835915,0.0
54223937210247,0.08844662,0.0
54223953877226,0.0885085,0.0
54223970544206,0.08859621,0.0
54223987211185,0.088678606,0.0
54224003878164,0.08874633,0.0
54224020545143,0.088845566,0.0
54224037212122,0.08890551,0.0
54224053879101,0.08895922,0.0
54224070546081,0.08906192,0.0
54224087213060,0.08914087,0.0
54224103880039,0.08923832,0.0
54224120547018,0.0892844,0.0
54224137213997,0.08935946,0.0
54224153880976,0.089454025,0.0
54224170547956,0.089511156,0.0
54224187214935,0.08949293,0.0
54224203881914,0.089378245,0.0
54224220548893,0.08923911,0.0
54224237215872,0.08904974,0.0
54224253882851,0.088863745,0.0
54224270549831,0.08871271,0.0
54224287216810,0.08858736,0.0
54224303883789,0.088524714,0.0
54224320550768,0.08845266,0.0
54224337217747,0.088392794,0.0
54224353884726,0.088404015,0.0
54224370551706,0.08837167,0.0
54224387218685,0.08840102,0.0
54224403885664,0.08841064,0.0
54224420552643,0.08846232,0.0
54224437219622,0.08853267,0.0
54224453886601,0.08857332,0.0
54224470553581,0.088597,0.0
54224487220560,0.08865589,0.0
54224503887539,0.08867911,0.0
54224520554518,0.08871872,0.0
54224537221497,0.08872539,0.0
54224553888476,0.08874586,0.0
54224570555456,0.088769235,0.0
54224587222435,0.08877775,0.0
54224603889414,0.08882193,0.0
54224620556393,0.08884095,0.0
54224637223372,0.08893564,0.0
54224653890351,0.08895558,0.0
54224670557331,0.08901507,0.0
54224687224310,0.08909437,0.0
54224703891289,0.08915147,0.0
54224720558268,0.089219496,0.0
54224737225247,0.08931069,0.0
54224753892226,0.089371756,0.0
54224770559206,0.0894712,0.0
54224787226185,0.08959252,0.0
54224803893164,0.089659065,0.0
54224820560143,0.0897526,0.0
54224837227122,0.08983916,0.0
54224853894101,0.08993786,0.0
54224870561081,0.09002811,0.0
54224887228060,0.09008594,0.0
54224903895039,0.090194255,0.0
54224920562018,0.090269044,0.0
54224937228997,0.09037986,0.0
54224953895976,0.09045559,0.0
54224970562956,0.09047035,0.0
54224987229935,0.090409875,0.0
54225003896914,0.09023667,0.0
54225020563893,0.09010996,0.0
54225037230872,0.08995668,0.0
54225053897851,0.089773096,0.0
54225070564831,0.089650005,0.0
54225087231810,0.08952922,0.0
54225103898789,0.08945004,0.0
54225120565768,0.08942507,0.0
54225137232747,0.08943435,0.0
54225153899726,0.08942203,0.0
54225170566706,0.08944682,0.0
54225187233685,0.089455105,0.0
54225203900664,0.08948308,0.0
54225220567643,0.08951775,0.0
54225237234622,0.08957496,0.0
54225253901601,0.08962311,0.0
54225270568581,0.08971217,0.0
54225287235560,0.0897391,0.0
54225303902539,0.089768425,0.0
54225320569518,0.089850545,0.0
54225337236497,0.08987899,0.0
54225353903476,0.08988452,0.0
54225370570456,0.089933574,0.0
54225387237435,0.08998022,0.0
54225403904414,0.09001887,0.0
54225420571393,0.09006809,0.0
54225437238372,0.09011851,0.0
54225453905351,0.09018862,0.0
54225470572331,0.09025428,0.0
54225487239310,0.090302885,0.0
54225503906289,0.09038781,0.0
54225520573268,0.090510115,0.0
54225537240247,0.090582356,0.0
54225553907226,0.09063843,0.0
54225570574206,0.09070917,0.0
54225587241185,0.09081569,0.0
54225603908164,0.09090512,0.0
54225620575143,0.091017745,0.0
54225637242122,0.09109485,0.0
54225653909101,0.09118445,0.0
54225670576081,0.09129108,0.0
54225687243060,0.09139998,0.0
54225703910039,0.09149039,0.0
54225720577018,0.091603704,0.0
54225737243997,0.09166123,0.0
54225753910976,0.0917429,0.0
54225770577956,0.0918494,0.0
54225787244935,0.09192966,0.0
54225803911914,0.09202134,0.0
54225820578893,0.09211111,0.0
54225837245872,0.0921949,0.0
54225853912851,0.09231001,0.0
54225870579831,0.092397265,0.0
54225887246810,0.09235259,0.0
54225903913789,0.092304885,0.0
54225920580768,0.09212617,0.0
54225937247747,0.09200358,0.0
54225953914726,0.09181626,0.0
54225970581706,0.091702774,0.0
54225987248685,0.09162359,0.0
54226003915664,0.09152995,0.0
54226020582643,0.09149599,0.0
54226037249622,0.09143321,0.0
54226053916601,0.09146806,0.0
54226070583581,0.0914408,0.0
54226087250560,0.09144101,0.0
54226103917539,0.09153338,0.0
54226120584518,0.091559365,0.0
54226137251497,0.09159692,0.0
54226153918476,0.09166059,0.0
54226170585456,0.091680646,0.0
54226187252435,0.09174892,0.0
54226203919414,0.09174839,0.0
54226220586393,0.091824144,0.0
54226237253372,0.091832295,0.0
54226253920351,0.09187169,0.0
54226270587331,0.091928214,0.0
54226287254310,0.0919057,0.0
54226303921289,0.091962524,0.0
54226320588268,0.09199946,0.0
54226337255247,0.09206642,0.0
54226353922226,0.09211759,0.0
54226370589206,0.09217079,0.0
54226387256185,0.092252575,0.0
54226403923164,0.09234331,0.0
54226420590143,0.09241783,0.0
54226437257122,0.092469856,0.0
54226453924101,0.09251191,0.0
54226470591081,0.0926391,0.0
54226487258060,0.092742816,0.0
54226503925039,0.09284943,0.0
54226520592018,0.092908375,0.0
54226537258997,0.092974894,0.0
54226553925976,0.093064785,0.0
54226570592956,0.09320843,0.0
54226587259935,0.09327209,0.0
54226603926914,0.093323156,0.0
54226620593893,0.09343499,0.0
54226637260872,0.09352534,0.0
54226653927851,0.09360444,0.0
54226670594831,0.09368061,0.0
54226687261810,0.0937805,0.0
54226703928789,0.0938594,0.0
54226720595768,0.09395995,0.0
54226737262747,0.09404561,0.0
54226753929726,0.094111845,0.0
54226770596706,0.09412685,0.0
54226787263685,0.0940226,0.0
54226803930664,0.093918756,0.0
54226820597643,0.09375981,0.0
54226837264622,0.09363712,0.0
54226853931601,0.09350761,0.0
54226870598581,0.0934098,0.0
54226887265560,0.093342654,0.0
54226903932539,0.093297675,0.0
54226920599518,0.093260296,0.0
54226937266497,0.093299106,0.0
54226953933476,0.093318634,0.0
54226970600456,0.093328,0.0
54226987267435,0.093347326,0.0
54227003934414,0.09339438,0.0
54227020601393,0.093440495,0.0
54227037268372,0.0934415,0.0
54227053935351,0.09349429,0.0
54227070602331,0.09351618,0.0
54227087269310,0.09357041,0.0
54227103936289,0.09361186,0.0
54227120603268,0.09360506,0.0
54227137270247,0.09363764,0.0
54227153937226,0.093634315,0.0
54227170604206,0.09365295,0.0
54227187271185,0.09370305,0.0
54227203938164,0.09372794,0.0
54227220605143,0.09376742,0.0
54227237272122,0.093789816,0.0
54227253939101,0.093859024,0.0
54227270606081,0.093932375,0.0
54227287273060,0.0939759,0.0
54227303940039,0.09403625,0.0
54227320607018,0.09408351,0.0
54227337273997,0.094170384,0.0
54227353940976,0.0942396,0.0
54227370607956,0.09430459,0.0
54227387274935,0.09434332,0.0
54227403941914,0.09441141,0.0
54227420608893,0.09445527,0.0
54227437275872,0.09450723,0.0
54227453942851,0.094590485,0.0
54227470609831,0.09465988,0.0
54227487276810,0.0947251,0.0
54227503943789,0.09477192,0.0
54227520610768,0.09485884,0.0
54227537277747,0.09491441,0.0
54227553944726,0.09496384,0.0
54227570611706,0.09502685,0.0
54227587278685,0.095104165,0.0
54227603945664,0.095125765,0.0
54227620612643,0.095088676,0.0
54227637279622,0.09497446,0.0
54227653946601,0.094830796,0.0
54227670613581,0.09466259,0.0
54227687280560,0.09452282,0.0
54227703947539,0.094409496,0.0
54227720614518,0.09429928,0.0
54227737281497,0.094268546,0.0
54227753948476,0.09419112,0.0
54227770615456,0.09417878,0.0
54227787282435,0.09415175,0.0
54227803949414,0.09415179,0.0
54227820616393,0.09417491,0.0
54227837283372,0.09420626,0.0
54227853950351,0.0942091,0.0
54227870617331,0.09426975,0.0
54227887284310,0.09427066,0.0
54227903951289,0.094306536,0.0
54227920618268,0.09430275,0.0
54227937285247,0.09433144,0.0
54227953952226,0.094316214,0.0
54227970619206,0.09432891,0.0
54227987286185,0.09436012,0.0
54228003953164,0.09432639,0.0
54228020620143,0.0943663,0.0
54228037287122,0.094359,0.0
54228053954101,0.094406225,0.0
54228070621081,0.094411656,0.0
54228087288060,0.094474494,0.0
54228103955039,0.09447568,0.0
54228120622018,0.09450476,0.0
54228137288997,0.094583325,0.0
54228153955976,0.09463809,0.0
54228170622956,0.09466275,0.0
54228187289935,0.094712585,0.0
54228203956914,0.09477169,0.0
54228220623893,0.09479991,0.0
54228237290872,0.09486265,0.0
54228253957851,0.09490113,0.0
54228270624831,0.094986394,0.0
54228287291810,0.09501624,0.0
54228303958789,0.09508687,0.0
54228320625768,0.095135614,0.0
54228337292747,0.095188804,0.0
54228353959726,0.09524453,0.0
54228370626706,0.09532921,0.0
54228387293685,0.0953255,0.0
54228403960664,0.095256925,0.0
54228420627643,0.09510186,0.0
54228437294622,0.09498538,0.0
54228453961601,0.09479269,0.0
54228470628581,0.09457871,0.0
54228487295560,0.09447686,0.0
54228503962539,0.09433338,0.0
54228520629518,0.09421521,0.0
54228537296497,0.09415084,0.0
54228553963476,0.09410255,0.0
54228570630456,0.09405189,0.0
54228587297435,0.094048046,0.0
54228603964414,0.09403184,0.0
54228620631393,0.094059415,0.0
54228637298372,0.0940488,0.0
54228653965351,0.09405949,0.0
54228670632331,0.094058186,0.0
54228687299310,0.094075054,0.0
54228703966289,0.09406515,0.0
54228720633268,0.094093315,0.0
54228737300247,0.09410068,0.0
54228753967226,0.094089344,0.0
54228770634206,0.094070725,0.0
54228787301185,0.09404648,0.0
54228803968164,0.09405177,0.0
54228820635143,0.09407449,0.0
54228837302122,0.09405818,0.0
54228853969101,0.09406659,0.0
54228870636081,0.09412479,0.0
54228887303060,0.09415504,0.0
54228903970039,0.09417552,0.0
54228920637018,0.094201945,0.0
54228937303997,0.09429267,0.0
54228953970976,0.09433072,0.0
54228970637956,0.09436392,0.0
54228987304935,0.09440383,0.0
54229003971914,0.094450936,0.0
54229020638893,0.09452626,0.0
54229037305872,0.09457545,0.0
54229053972851,0.094646856,0.0
54229070639831,0.094658814,0.0
54229087306810,0.09471309,0.0
54229103973789,0.09476236,0.0
54229120640768,0.094817944,0.0
54229137307747,0.09490016,0.0
54229153974726,0.0949021,0.0
54229170641706,0.09496762,0.0
54229187308685,0.09497805,0.0
54229203975664,0.094928056,0.0
54229220642643,0.09478642,0.0
54229237309622,0.09456246,0.0
54229253976601,0.094295956,0.0
54229270643581,0.09407145,0.0
54229287310560,0.09387627,0.0
54229303977539,0.09370339,0.0
54229320644518,0.093594626,0.0
54229337311497,0.09345957,0.0
54229353978476,0.09334672,0.0
54229370645456,0.09327532,0.0
54229387312435,0.093234,0.0
54229403979414,0.09315725,0.0
54229420646393,0.09315096,0.0
54229437313372,0.0931011,0.0
54229453980351,0.09312557,0.0
54229470647331,0.093109116,0.0
54229487314310,0.09307851,0.0
54229503981289,0.093050934,0.0
54229520648268,0.093044974,0.0
54229537315247,0.093033254,0.0
54229553982226,0.09297164,0.0
54229570649206,0.092942774,0.0
54229587316185,0.09293202,0.0
54229603983164,0.09288893,0.0
54229620650143,0.092874765,0.0
54229637317122,0.09288508,0.0
54229653984101,0.09287808,0.0
54229670651081,0.092904635,0.0
54229687318060,0.09291349,0.0
54229703985039,0.09292182,0.0
54229720652018,0.092927724,0.0
54229737318997,0.092962146,0.0
54229753985976,0.09301132,0.0
54229770652956,0.09306955,0.0
54229787319935,0.09314098,0.0
54229803986914,0.09314789,0.0
54229820653893,0.09318276,0.0
54229837320872,0.093216516,0.0
54229853987851,0.09326784,0.0
54229870654831,0.09333838,0.0
54229887321810,0.09339266,0.0
54229903988789,0.09347314,0.0
54229920655768,0.09350094,0.0
54229937322747,0.09353836,0.0
54229953989726,0.09360002,0.0
54229970656706,0.09365301,0.0
54229987323685,0.09370365,0.0
54230003990664,0.09374771,0.0
54230020657643,0.0937534,0.0
54230037324622,0.09374403,0.0
54230053991601,0.09367141,0.0
54230070658581,0.09344462,0.0
54230087325560,0.09323396,0.0
54230103992539,0.09299212,0.0
54230120659518,0.09274179,0.0
54230137326497,0.092495374,0.0
54230153993476,0.09233567,0.0
54230170660456,0.09216115,0.0
54230187327435,0.09204537,0.0
54230203994414,0.09200192,0.0
54230220661393,0.09189661,0.0
54230237328372,0.09185209,0.0
54230253995351,0.091791116,0.0
54230270662331,0.09177637,0.0
54230287329310,0.09175473,0.0
54230303996289,0.09178454,0.0
54230320663268,0.09178501,0.0
54230337330247,0.09174356,0.0
54230353997226,0.09175371,0.0
54230370664206,0.09169884,0.0
54230387331185,0.09167251,0.0
54230403998164,0.09164476,0.0
54230420665143,0.091617,0.0
54230437332122,0.09163335,0.0
54230453999101,0.09156313,0.0
54230470666081,0.0915362,0.0
54230487333060,0.09151228,0.0
54230504000039,0.091545776,0.0
54230520667018,0.09154185,0.0
54230537333997,0.09156943,0.0
54230554000976,0.09163272,0.0
54230570667956,0.09164049,0.0
54230587334935,0.091655076,0.0
54230604001914,0.091685385,0.0
54230620668893,0.09172927,0.0
54230637335872,0.091759495,0.0
54230654002851,0.09183927,0.0
54230670669831,0.0918459,0.0
54230687336810,0.091912255,0.0
54230704003789,0.09193897,0.0
54230720670768,0.09200589,0.0
54230737337747,0.09202874,0.0
54230754004726,0.09208596,0.0
54230770671706,0.09215641,0.0
54230787338685,0.092193626,0.0
54230804005664,0.0922548,0.0
54230820672643,0.09227438,0.0
54230837339622,0.09233754,0.0
54230854006601,0.09236745,0.0
54230870673581,0.09236314,0.0
54230887340560,0.09222486,0.0
54230904007539,0.09205375,0.0
54230920674518,0.09182119,0.0
54230937341497,0.09158744,0.0
54230954008476,0.09134118,0.0
54230970675456,0.091167405,0.0
54230987342435,0.09099093,0.0
54231004009414,0.09087424,0.0
54231020676393,0.09076488,0.0
54231037343372,0.09071958,0.0
54231054010351,0.09065619,0.0
54231070677331,0.09065293,0.0
54231087344310,0.090606846,0.0
54231104011289,0.09062484,0.0
54231120678268,0.09061244,0.0
54231137345247,0.090629265,0.0
54231154012226,0.090651065,0.0
54231170679206,0.09065716,0.0
54231187346185,0.09062478,0.0
54231204013164,0.090683654,0.0
54231220680143,0.09061986,0.0
54231237347122,0.09062207,0.0
54231254014101,0.090589516,0.0
54231270681081,0.09058934,0.0
54231287348060,0.09056261,0.0
54231304015039,0.09064362,0.0
54231320682018,0.09061681,0.0
54231337348997,0.09062384,0.0
54231354015976,0.090636015,0.0
54231370682956,0.09068869,0.0
54231387349935,0.09073304,0.0
54231404016914,0.090759106,0.0
54231420683893,0.09080789,0.0
54231437350872,0.09089276,0.0
54231454017851,0.09094853,0.0
54231470684831,0.09097145,0.0
54231487351810,0.091068216,0.0
54231504018789,0.09111882,0.0
54231520685768,0.091163486,0.0
54231537352747,0.09123914,0.0
54231554019726,0.09130423,0.0
54231570686706,0.09135732,0.0
54231587353685,0.09139881,0.0
54231604020664,0.091465995,0.0
54231620687643,0.09151929,0.0
54231637354622,0.09157221,0.0
54231654021601,0.09158022,0.0
54231670688581,0.09142397,0.0
54231687355560,0.09119884,0.0
54231704022539,0.09098931,0.0
54231720689518,0.09074801,0.0
54231737356497,0.09057063,0.0
54231754023476,0.0904099,0.0
54231770690456,0.090269044,0.0
54231787357435,0.09017021,0.0
54231804024414,0.09012364,0.0
54231820691393,0.0900853,0.0
54231837358372,0.09005149,0.0
54231854025351,0.090066805,0.0
54231870692331,0.09004375,0.0
54231887359310,0.09005777,0.0
54231904026289,0.09005456,0.0
54231920693268,0.09013937,0.0
54231937360247,0.09014993,0.0
54231954027226,0.090150796,0.0
54231970694206,0.09017384,0.0
54231987361185,0.09020597,0.0
54232004028164,0.09023072,0.0
54232020695143,0.09022296,0.0
54232037362122,0.0902447,0.0
54232054029101,0.09025176,0.0
54232070696081,0.09025942,0.0
54232087363060,0.090291016,0.0
54232104030039,0.09030863,0.0
54232120697018,0.0903908,0.0
54232137363997,0.09039411,0.0
54232154030976,0.09045601,0.0
54232170697956,0.0905121,0.0
54232187364935,0.090583116,0.0
54232204031914,0.09066728,0.0
54232220698893,0.09072058,0.0
54232237365872,0.09081408,0.0
54232254032851,0.09088725,0.0
54232270699831,0.0909388,0.0
54232287366810,0.09104641,0.0
54232304033789,0.0911206,0.0
54232320700768,0.09119534,0.0
54232337367747,0.09127332,0.0
54232354034726,0.09134733,0.0
54232370701706,0.09142542,0.0
54232387368685,0.09152004,0.0
54232404035664,0.09161553,0.0
54232420702643,0.091679156,0.0
54232437369622,0.09170782,0.0
54232454036601,0.0917705,0.0
54232470703581,0.091724396,0.0
54232487370560,0.091579415,0.0
54232504037539,0.09137381,0.0
54232520704518,0.09121312,0.0
54232537371497,0.090968154,0.0
54232554038476,0.09079296,0.0
54232570705456,0.09063317,0.0
54232587372435,0.090540424,0.0
54232604039414,0.090458915,0.0
54232620706393,0.0903992,0.0
54232637373372,0.09038969,0.0
54232654040351,0.090372704,0.0
54232670707331,0.090347566,0.0
54232687374310,0.09034152,0.0
54232704041289,0.09036653,0.0
54232720708268,0.09041134,0.0
54232737375247,0.090448484,0.0
54232754042226,0.09045754,0.0
54232770709206,0.0905125,0.0
54232787376185,0.09052713,0.0
54232804043164,0.09056602,0.0
54232820710143,0.090581,0.0
54232837377122,0.09058487,0.0
54232854044101,0.090608805,0.0
54232870711081,0.090598546,0.0
54232887378060,0.09066652,0.0
54232904045039,0.09070347,0.0
54232920712018,0.09074241,0.0
54232937378997,0.090825334,0.0
54232954045976,0.090864286,0.0
54232970712956,0.09092356,0.0
54232987379935,0.09102854,0.0
54233004046914,0.09106993,0.0
54233020713893,0.09113909,0.0
54233037380872,0.09122419,0.0
54233054047851,0.09128839,0.0
54233070714831,0.091376565,0.0
54233087381810,0.09146578,0.0
54233104048789,0.09153436,0.0
54233120715768,0.09166846,0.0
54233137382747,0.09176682,0.0
54233154049726,0.09182811,0.0
54233170716706,0.09191041,0.0
54233187383685,0.09200636,0.0
54233204050664,0.092086576,0.0
54233220717643,0.09217013,0.0
54233237384622,0.09227474,0.0
54233254051601,0.092369854,0.0
54233270718581,0.09244758,0.0
54233287385560,0.09254259,0.0
54233304052539,0.09263494,0.0
54233320719518,0.09264362,0.0
54233337386497,0.09257189,0.0
54233354053476,0.09242297,0.0
54233370720456,0.09224525,0.0
54233387387435,0.09209122,0.0
54233404054414,0.09189819,0.0
54233420721393,0.09172898,0.0
54233437388372,0.0916429,0.0
54233454055351,0.09154345,0.0
54233470722331,0.09152718,0.0
54233487389310,0.091527075,0.0
54233504056289,0.09151217,0.0
54233520723268,0.091514826,0.0
54233537390247,0.09152079,0.0
54233554057226,0.09153953,0.0
54233570724206,0.09155034,0.0
54233587391185,0.09159683,0.0
54233604058164,0.091621466,0.0
54233620725143,0.09166205,0.0
54233637392122,0.09168579,0.0
54233654059101,0.09173762,0.0
54233670726081,0.09175203,0.0
54233687393060,0.09175591,0.0
54233704060039,0.09176672,0.0
54233720727018,0.091772705,0.0
54233737393997,0.09182151,0.0
54233754060976,0.09183724,0.0
54233770727956,0.091852315,0.0
54233787394935,0.09194024,0.0
54233804061914,0.09200479,0.0
54233820728893,0.09203653,0.0
54233837395872,0.09211666,0.0
54233854062851,0.09218841,0.0
54233870729831,0.09224393,0.0
54233887396810,0.09231407,0.0
54233904063789,0.092421696,0.0
54233920730768,0.09243843,0.0
54233937397747,0.09254482,0.0
54233954064726,0.0925903,0.0
54233970731706,0.09271345,0.0
54233987398685,0.092756815,0.0
54234004065664,0.092831075,0.0
54234020732643,0.09290971,0.0
54234037399622,0.09301561,0.0
54234054066601,0.09305931,0.0
54234070733581,0.0931499,0.0
54234087400560,0.09320657,0.0
54234104067539,0.09330061,0.0
54234120734518,0.09336508,0.0
54234137401497,0.09342376,0.0
54234154068476,0.09351178,0.0
54234170735456,0.09350282,0.0
54234187402435,0.09345806,0.0
54234204069414,0.09332104,0.0
54234220736393,0.09315699,0.0
54234237403372,0.09301681,0.0
54234254070351,0.09286546,0.0
54234270737331,0.09275535,0.0
54234287404310,0.09267751,0.0
54234304071289,0.09262175,0.0
54234320738268,0.09260946,0.0
54234337405247,0.09257762,0.0
54234354072226,0.092604615,0.0
54234370739206,0.092601515,0.0
54234387406185,0.09264806,0.0
54234404073164,0.09265796,0.0
54234420740143,0.09270416,0.0
54234437407122,0.092740394,0.0
54234454074101,0.09278227,0.0
54234470741081,0.092834376,0.0
54234487408060,0.09286107,0.0
54234504075039,0.09285864,0.0
54234520742018,0.092855096,0.0
54234537408997,0.09291434,0.0
54234554075976,0.09291449,0.0
54234570742956,0.09293657,0.0
54234587409935,0.09296957,0.0
54234604076914,0.092969716,0.0
54234620743893,0.0930135,0.0
54234637410872,0.093079396,0.0
54234654077851,0.09310719,0.0
54234670744831,0.09315758,0.0
54234687411810,0.09321422,0.0
54234704078789,0.0932771,0.0
54234720745768,0.093361445,0.0
54234737412747,0.093403675,0.0
54234754079726,0.09350014,0.0
54234770746706,0.09356414,0.0
54234787413685,0.09362653,0.0
54234804080664,0.09374113,0.0
54234820747643,0.0937821,0.0
54234837414622,0.09382893,0.0
54234854081601,0.0939516,0.0
54234870748581,0.09400542,0.0
54234887415560,0.09406921,0.0
54234904082539,0.09411051,0.0
54234920749518,0.09418993,0.0
54234937416497,0.094215214,0.0
54234954083476,0.094309,0.0
54234970750456,0.09437108,0.0
54234987417435,0.094453156,0.0
54235004084414,0.09439635,0.0
54235020751393,0.09425864,0.0
54235037418372,0.09410417,0.0
54235054085351,0.09397279,0.0
54235070752331,0.09383741,0.0
54235087419310,0.09368993,0.0
54235104086289,0.093605876,0.0
54235120753268,0.093550116,0.0
54235137420247,0.093503445,0.0
54235154087226,0.09350214,0.0
54235170754206,0.093498915,0.0
54235187421185,0.09353867,0.0
54235204088164,0.093561485,0.0
54235220755143,0.093586184,0.0
54235237422122,0.093613036,0.0
54235254089101,0.09364885,0.0
54235270756081,0.093694784,0.0
54235287423060,0.0937311,0.0
54235304090039,0.09377004,0.0
54235320757018,0.09383282,0.0
54235337423997,0.09383432,0.0
54235354090976,0.093882464,0.0
54235370757956,0.09391076,0.0
54235387424935,0.0938845,0.0
54235404091914,0.09391629,0.0
54235420758893,0.093978606,0.0
54235437425872,0.0940257,0.0
54235454092851,0.09409099,0.0
54235470759831,0.09411488,0.0
54235487426810,0.094170675,0.0
54235504093789,0.094254956,0.0
54235520760768,0.09429285,0.0
54235537427747,0.0943631,0.0
54235554094726,0.09445944,0.0
54235570761706,0.09451788,0.0
54235587428685,0.09460236,0.0
54235604095664,0.094655946,0.0
54235620762643,0.09473468,0.0
54235637429622,0.09480247,0.0
54235654096601,0.09489324,0.0
54235670763581,0.09494624,0.0
54235687430560,0.0949966,0.0
54235704097539,0.095081076,0.0
54235720764518,0.09514447,0.0
54235737431497,0.095245354,0.0
54235754098476,0.09528134,0.0
54235770765456,0.095368624,0.0
54235787432435,0.09539327,0.0
54235804099414,0.09536047,0.0
54235820766393,0.09525281,0.0
54235837433372,0.09512249,0.0
54235854100351,0.09494118,0.0
54235870767331,0.09477776,0.0
54235887434310,0.09466538,0.0
54235904101289,0.09456904,0.0
54235920768268,0.09451403,0.0
54235937435247,0.09448628,0.0
54235954102226,0.094449334,0.0
54235970769206,0.094448544,0.0
54235987436185,0.09444789,0.0
54236004103164,0.09446814,0.0
54236020770143,0.09446411,0.0
54236037437122,0.09449576,0.0
54236054104101,0.09453443,0.0
54236070771081,0.0945637,0.0
54236087438060,0.09456635,0.0
54236104105039,0.094595745,0.0
54236120772018,0.09460806,0.0
54236137438997,0.09463444,0.0
54236154105976,0.09465958,0.0
54236170772956,0.09469747,0.0
54236187439935,0.0947101,0.0
54236204106914,0.09472168,0.0
54236220773893,0.09474455,0.0
54236237440872,0.094780594,0.0
54236254107851,0.09482109,0.0
54236270774831,0.09484057,0.0
54236287441810,0.09492153,0.0
54236304108789,0.09497203,0.0
54236320775768,0.09498977,0.0
54236337442747,0.09509235,0.0
54236354109726,0.09511043,0.0
54236370776706,0.09516689,0.0
54236387443685,0.09527819,0.0
54236404110664,0.09531769,0.0
54236420777643,0.09536116,0.0
54236437444622,0.09543448,0.0
54236454111601,0.095503345,0.0
54236470778581,0.0955621,0.0
54236487445560,0.09561211,0.0
54236504112539,0.095655106,0.0
54236520779518,0.09573913,0.0
54236537446497,0.09577032,0.0
54236554113476,0.095838524,0.0
54236570780456,0.095891744,0.0
54236587447435,0.09594611,0.0
54236604114414,0.09592428,0.0
54236620781393,0.09577417,0.0
54236637448372,0.09561682,0.0
54236654115351,0.09545009,0.0
54236670782331,0.09526266,0.0
54236687449310,0.09511727,0.0
54236704116289,0.09501119,0.0
54236720783268,0.09491376,0.0
54236737450247,0.094855174,0.0
54236754117226,0.09480958,0.0
54236770784206,0.094752975,0.0
54236787451185,0.09477488,0.0
54236804118164,0.0947889,0.0
54236820785143,0.094754875,0.0
54236837452122,0.09478594,0.0
54236854119101,0.094788596,0.0
54236870786081,0.09480658,0.0
54236887453060,0.094809525,0.0
54236904120039,0.09480934,0.0
54236920787018,0.09481531,0.0
54236937453997,0.0948206,0.0
54236954120976,0.09480263,0.0
54236970787956,0.09478678,0.0
54236987454935,0.09483695,0.0
54237004121914,0.09478911,0.0
54237020788893,0.09478278,0.0
54237037455872,0.09477429,0.0
54237054122851,0.09476147,0.0
54237070789831,0.094805926,0.0
54237087456810,0.09483166,0.0
54237104123789,0.09485573,0.0
54237120790768,0.09487221,0.0
54237137457747,0.0949216,0.0
54237154124726,0.09495783,0.0
54237170791706,0.09496306,0.0
54237187458685,0.095010296,0.0
54237204125664,0.09503917,0.0
54237220792643,0.09511198,0.0
54237237459622,0.09514969,0.0
54237254126601,0.09519993,0.0
54237270793581,0.09522654,0.0
54237287460560,0.09529833,0.0
54237304127539,0.095298104,0.0
54237320794518,0.09534062,0.0
54237337461497,0.09538357,0.0
54237354128476,0.09542802,0.0
54237370795456,0.09538364,0.0
54237387462435,0.09527575,0.0
54237404129414,0.09513928,0.0
54237420796393,0.0949523,0.0
54237437463372,0.0947433,0.0
54237454130351,0.09461575,0.0
54237470797331,0.09441663,0.0
54237487464310,0.09429769,0.0
54237504131289,0.09419959,0.0
54237520798268,0.09414019,0.0
54237537465247,0.094087064,0.0
54237554132226,0.094049856,0.0
54237570799206,0.09400592,0.0
54237587466185,0.09399756,0.0
54237604133164,0.09399087,0.0
54237620800143,0.094028234,0.0
54237637467122,0.09402074,0.0
54237654134101,0.09402493,0.0
54237670801081,0.09398897,0.0
54237687468060,0.09399752,0.0
54237704135039,0.09397794,0.0
54237720802018,0.09396381,0.0
54237737468997,0.09391851,0.0
54237754135976,0.093877696,0.0
54237770802956,0.09388153,0.0
54237787469935,0.09386912,0.0
54237804136914,0.09388967,0.0
54237820803893,0.093893416,0.0
54237837470872,0.093867585,0.0
54237854137851,0.09394508,0.0
54237870804831,0.093921944,0.0
54237887471810,0.09397101,0.0
54237904138789,0.09396671,0.0
54237920805768,0.09401384,0.0
54237937472747,0.094063655,0.0
54237954139726,0.09409593,0.0
54237970806706,0.09409845,0.0
54237987473685,0.09413417,0.0
54238004140664,0.09417274,0.0
54238020807643,0.094226256,0.0
54238037474622,0.094263285,0.0
54238054141601,0.09429242,0.0
54238070808581,0.094347164,0.0
54238087475560,0.09439551,0.0
54238104142539,0.09439924,0.0
54238120809518,0.09427039,0.0
54238137476497,0.09413344,0.0
54238154143476,0.09387098,0.0
54238170810456,0.09365208,0.0
54238187477435,0.09342379,0.0
54238204144414,0.09324755,0.0
54238220811393,0.09307709,0.0
54238237478372,0.092962764,0.0
54238254145351,0.09288226,0.0
54238270812331,0.09281252,0.0
54238287479310,0.09273657,0.0
54238304146289,0.09268228,0.0
54238320813268,0.09266436,0.0
54238337480247,0.09263575,0.0
54238354147226,0.09262533,0.0
54238370814206,0.0926242,0.0
54238387481185,0.092631385,0.0
54238404148164,0.092605755,0.0
54238420815143,0.09259709,0.0
54238437482122,0.09259943,0.0
54238454149101,0.092564255,0.0
54238470816081,0.092568606,0.0
54238487483060,0.092518404,0.0
54238504150039,0.09249724,0.0
54238520817018,0.0925006,0.0
54238537483997,0.09252314,0.0
54238554150976,0.09252207,0.0
54238570817956,0.09252904,0.0
54238587484935,0.09254352,0.0
54238604151914,0.09256267,0.0
54238620818893,0.092599064,0.0
54238637485872,0.09260095,0.0
54238654152851,0.09263805,0.0
54238670819831,0.09270036,0.0
54238687486810,0.092728525,0.0
54238704153789,0.09280871,0.0
54238720820768,0.09285246,0.0
54238737487747,0.09288549,0.0
54238754154726,0.09294321,0.0
54238770821706,0.09299568,0.0
54238787488685,0.093070306,0.0
54238804155664,0.0931244,0.0
54238820822643,0.093176745,0.0
54238837489622,0.093258135,0.0
54238854156601,0.093279324,0.0
54238870823581,0.09334394,0.0
54238887490560,0.09332368,0.0
54238904157539,0.09320645,0.0
54238920824518,0.09304005,0.0
54238937491497,0.092781566,0.0
54238954158476,0.09254786,0.0
54238970825456,0.09236488,0.0
54238987492435,0.092100695,0.0
54239004159414,0.091925,0.0
54239020826393,0.0918264,0.0
54239037493372,0.09175113,0.0
54239054160351,0.09166616,0.0
54239070827331,0.09163277,0.0
54239087494310,0.09158258,0.0
54239104161289,0.0915692,0.0
54239120828268,0.091560096,0.0
54239137495247,0.091539145,0.0
54239154162226,0.091545045,0.0
54239170829206,0.09157625,0.0
54239187496185,0.09159513,0.0
54239204163164,0.09154019,0.0
54239220830143,0.09156053,0.0
54239237497122,0.09157244,0.0
54239254164101,0.09159144,0.0
54239270831081,0.091571204,0.0
54239287498060,0.09157843,0.0
54239304165039,0.091548555,0.0
54239320832018,0.09157333,0.0
54239337498997,0.0916165,0.0
54239354165976,0.09161484,0.0
54239370832956,0.09165902,0.0
54239387499935,0.09171072,0.0
54239404166914,0.09173837,0.0
54239420833893,0.091774896,0.0
54239437500872,0.09185059,0.0
54239454167851,0.09189819,0.0
54239470834831,0.09195086,0.0
54239487501810,0.0920116,0.0
54239504168789,0.09208685,0.0
54239520835768,0.09215358,0.0
54239537502747,0.09222837,0.0
54239554169726,0.09229706,0.0
54239570836706,0.09236798,0.0
54239587503685,0.092427835,0.0
54239604170664,0.092466354,0.0
54239620837643,0.09256108,0.0
54239637504622,0.092633106,0.0
54239654171601,0.09266858,0.0
54239670838581,0.09272741,0.0
54239687505560,0.09278946,0.0
54239704172539,0.09282218,0.0
54239720839518,0.09280782,0.0
54239737506497,0.09258248,0.0
54239754173476,0.0924264,0.0
54239770840456,0.09220488,0.0
54239787507435,0.091993056,0.0
54239804174414,0.09180674,0.0
54239820841393,0.09164643,0.0
54239837508372,0.09153555,0.0
54239854175351,0.09147374,0.0
54239870842331,0.091422565,0.0
54239887509310,0.09140518,0.0
54239904176289,0.09139676,0.0
54239920843268,0.0913678,0.0
54239937510247,0.0913671,0.0
54239954177226,0.0913746,0.0
54239970844206,0.09142156,0.0
54239987511185,0.0914391,0.0
54240004178164,0.091456905,0.0
54240020845143,0.09147781,0.0
54240037512122,0.091460116,0.0
54240054179101,0.09147896,0.0
54240070846081,0.09149813,0.0
54240087513060,0.091505736,0.0
54240104180039,0.09149373,0.0
54240120847018,0.09150456,0.0
54240137513997,0.09149279,0.0
54240154180976,0.09155361,0.0
54240170847956,0.09157255,0.0
54240187514935,0.091567904,0.0
54240204181914,0.09163773,0.0
54240220848893,0.09168111,0.0
54240237515872,0.09173139,0.0
54240254182851,0.09177633,0.0
54240270849831,0.091831714,0.0
54240287516810,0.09189657,0.0
54240304183789,0.091960914,0.0
54240320850768,0.092034146,0.0
54240337517747,0.0921037,0.0
54240354184726,0.09216288,0.0
54240370851706,0.09224403,0.0
54240387518685,0.092319466,0.0
54240404185664,0.09235489,0.0
54240420852643,0.09242487,0.0
54240437519622,0.09246574,0.0
54240454186601,0.092544794,0.0
54240470853581,0.09262964,0.0
54240487520560,0.09265646,0.0
54240504187539,0.09268723,0.0
54240520854518,0.09265138,0.0
54240537521497,0.09252173,0.0
54240554188476,0.0923447,0.0
54240570855456,0.09215853,0.0
54240587522435,0.09198878,0.0
54240604189414,0.0918591,0.0
54240620856393,0.09176603,0.0
54240637523372,0.091685146,0.0
54240654190351,0.091632,0.0
54240670857331,0.09160058,0.0
54240687524310,0.091608316,0.0
54240704191289,0.09164096,0.0
54240720858268,0.09167008,0.0
54240737525247,0.09170656,0.0
54240754192226,0.09172623,0.0
54240770859206,0.091755174,0.0
54240787526185,0.09181517,0.0
54240804193164,0.09183839,0.0
54240820860143,0.09185768,0.0
54240837527122,0.09186555,0.0
54240854194101,0.09188858,0.0
54240870861081,0.091904484,0.0
54240887528060,0.091940165,0.0
54240904195039,0.09190553,0.0
54240920862018,0.09193781,0.0
54240937528997,0.09196521,0.0
54240954195976,0.09203336,0.0
54240970862956,0.09202798,0.0
54240987529935,0.0921077,0.0
54241004196914,0.0921652,0.0
54241020863893,0.09221836,0.0
54241037530872,0.09227257,0.0
54241054197851,0.09234518,0.0
54241070864831,0.092425086,0.0
54241087531810,0.09250173,0.0
54241104198789,0.092546314,0.0
54241120865768,0.09263173,0.0
54241137532747,0.09271365,0.0
54241154199726,0.092792615,0.0
54241170866706,0.092851825,0.0
54241187533685,0.09293947,0.0
54241204200664,0.093010895,0.0
54241220867643,0.093084306,0.0
54241237534622,0.09315561,0.0
54241254201601,0.093189485,0.0
54241270868581,0.093198955,0.0
54241287535560,0.093078434,0.0
54241304202539,0.092918806,0.0
54241320869518,0.09278291,0.0
54241337536497,0.09261455,0.0
54241354203476,0.09251484,0.0
54241370870456,0.09242849,0.0
54241387537435,0.09237233,0.0
54241404204414,0.092350274,0.0
54241420871393,0.09232999,0.0
54241437538372,0.092331246,0.0
54241454205351,0.09233759,0.0
54241470872331,0.09237961,0.0
54241487539310,0.09241168,0.0
54241504206289,0.0924799,0.0
54241520873268,0.09251236,0.0
54241537540247,0.092537545,0.0
54241554207226,0.09263534,0.0
54241570874206,0.092690825,0.0
54241587541185,0.09268612,0.0
54241604208164,0.09271235,0.0
54241620875143,0.09276028,0.0
54241637542122,0.09276308,0.0
54241654209101,0.092822246,0.0
54241670876081,0.09282139,0.0
54241687543060,0.0928857,0.0
54241704210039,0.0929127,0.0
54241720877018,0.092991106,0.0
54241737543997,0.093005225,0.0
54241754210976,0.093071416,0.0
54241770877956,0.09315676,0.0
54241787544935,0.0932226,0.0
54241804211914,0.09332137,0.0
54241820878893,0.09338498,0.0
54241837545872,0.09344146,0.0
54241854212851,0.093547486,0.0
54241870879831,0.09363289,0.0
54241887546810,0.09371503,0.0
54241904213789,0.09379117,0.0
54241920880768,0.09391404,0.0
54241937547747,0.093996294,0.0
54241954214726,0.09406617,0.0
54241970881706,0.09415837,0.0
54241987548685,0.094216354,0.0
54242004215664,0.094237044,0.0
54242020882643,0.09413709,0.0
54242037549622,0.09400563,0.0
54242054216601,0.09387791,0.0
54242070883581,0.09373174,0.0
54242087550560,0.093620196,0.0
54242104217539,0.09349592,0.0
54242120884518,0.09342163,0.0
54242137551497,0.09336765,0.0
54242154218476,0.093361184,0.0
54242170885456,0.09338777,0.0
54242187552435,0.09340973,0.0
54242204219414,0.09339154,0.0
54242220886393,0.09338834,0.0
54242237553372,0.0934494,0.0
54242254220351,0.09350945,0.0
54242270887331,0.09348344,0.0
54242287554310,0.09354265,0.0
54242304221289,0.09358405,0.0
54242320888268,0.09365098,0.0
54242337555247,0.09366517,0.0
54242354222226,0.09367946,0.0
54242370889206,0.09372067,0.0
54242387556185,0.09374925,0.0
54242404223164,0.09376209,0.0
54242420890143,0.09382505,0.0
54242437557122,0.09385415,0.0
54242454224101,0.09388493,0.0
54242470891081,0.09396921,0.0
54242487558060,0.094010346,0.0
54242504225039,0.09407218,0.0
54242520892018,0.09412394,0.0
54242537558997,0.09420399,0.0
54242554225976,0.0943115,0.0
54242570892956,0.09433176,0.0
54242587559935,0.09442758,0.0
54242604226914,0.09446749,0.0
54242620893893,0.09456289,0.0
54242637560872,0.09464343,0.0
54242654227851,0.09468801,0.0
54242670894831,0.09479113,0.0
54242687561810,0.0948672,0.0
54242704228789,0.0949381,0.0
54242720895768,0.094911635,0.0
54242737562747,0.09479648,0.0
54242754229726,0.094678044,0.0
54242770896706,0.09448678,0.0
54242787563685,0.09435837,0.0
54242804230664,0.09420559,0.0
54242820897643,0.09412308,0.0
54242837564622,0.09404912,0.0
54242854231601,0.09398811,0.0
54242870898581,0.09402202,0.0
54242887565560,0.09398073,0.0
54242904232539,0.094015144,0.0
54242920899518,0.09404104,0.0
54242937566497,0.09403118,0.0
54242954233476,0.09406128,0.0
54242970900456,0.09412089,0.0
54242987567435,0.094190255,0.0
54243004234414,0.09424613,0.0
54243020901393,0.09427172,0.0
54243037568372,0.09431365,0.0
54243054235351,0.09435278,0.0
54243070902331,0.09439121,0.0
54243087569310,0.094422355,0.0
54243104236289,0.09442794,0.0
54243120903268,0.09443408,0.0
54243137570247,0.09450075,0.0
54243154237226,0.09451848,0.0
54243170904206,0.094593436,0.0
54243187571185,0.09461243,0.0
54243204238164,0.094627306,0.0
54243220905143,0.09468211,0.0
54243237572122,0.09474468,0.0
54243254239101,0.09478725,0.0
54243270906081,0.09485479,0.0
54243287573060,0.09493258,0.0
54243304240039,0.094991244,0.0
54243320907018,0.095050864,0.0
54243337573997,0.09511863,0.0
54243354240976,0.09517797,0.0
54243370907956,0.095221356,0.0
54243387574935,0.095293045,0.0
54243404241914,0.09534615,0.0
54243420908893,0.09540006,0.0
54243437575872,0.09542425,0.0
54243454242851,0.09530784,0.0
54243470909831,0.09513758,0.0
54243487576810,0.09495874,0.0
54243504243789,0.09480637,0.0
54243520910768,0.09469606,0.0
54243537577747,0.09454718,0.0
54243554244726,0.09446968,0.0
54243570911706,0.09442793,0.0
54243587578685,0.094386555,0.0
54243604245664,0.09439695,0.0
54243620912643,0.09438173,0.0
54243637579622,0.09439856,0.0
54243654246601,0.09437373,0.0
54243670913581,0.09436774,0.0
54243687580560,0.09439894,0.0
54243704247539,0.09443021,0.0
54243720914518,0.094447225,0.0
54243737581497,0.09449509,0.0
54243754248476,0.09448559,0.0
54243770915456,0.094530374,0.0
54243787582435,0.09448236,0.0
54243804249414,0.09454369,0.0
54243820916393,0.09452495,0.0
54243837583372,0.09454369,0.0
54243854250351,0.09460449,0.0
54243870917331,0.094591744,0.0
54243887584310,0.09461299,0.0
54243904251289,0.09463759,0.0
54243920918268,0.09468834,0.0
54243937585247,0.09474366,0.0
54243954252226,0.09480331,0.0
54243970919206,0.09486665,0.0
54243987586185,0.094940804,0.0
54244004253164,0.0950133,0.0
54244020920143,0.09504459,0.0
54244037587122,0.09510869,0.0
54244054254101,0.09514674,0.0
54244070921081,0.09520921,0.0
54244087588060,0.09534733,0.0
54244104255039,0.095362656,0.0
54244120922018,0.095407605,0.0
54244137588997,0.09529011,0.0
54244154255976,0.09512194,0.0
54244170922956,0.094979554,0.0
54244187589935,0.094858035,0.0
54244204256914,0.0946814,0.0
54244220923893,0.09456611,0.0
54244237590872,0.09451324,0.0
54244254257851,0.094467446,0.0
54244270924831,0.09443828,0.0
54244287591810,0.09442331,0.0
54244304258789,0.09440413,0.0
54244320925768,0.09440398,0.0
54244337592747,0.09443306,0.0
54244354259726,0.094449155,0.0
54244370926706,0.0945016,0.0
54244387593685,0.09452987,0.0
54244404260664,0.09453496,0.0
54244420927643,0.09457282,0.0
54244437594622,0.09458839,0.0
54244454261601,0.09464166,0.0
54244470928581,0.09464226,0.0
54244487595560,0.09466491,0.0
54244504262539,0.09466868,0.0
54244520929518,0.09467513,0.0
54244537596497,0.094681665,0.0
54244554263476,0.0947458,0.0
54244570930456,0.09479537,0.0
54244587597435,0.09480891,0.0
54244604264414,0.09485188,0.0
54244620931393,0.09492181,0.0
54244637598372,0.09496099,0.0
54244654265351,0.095008194,0.0
54244670932331,0.095101826,0.0
54244687599310,0.09515689,0.0
54244704266289,0.09517133,0.0
54244720933268,0.09525717,0.0
54244737600247,0.095342875,0.0
54244754267226,0.09543273,0.0
54244770934206,0.09545164,0.0
54244787601185,0.095469475,0.0
54244804268164,0.095450655,0.0
54244820935143,0.09535363,0.0
54244837602122,0.095180385,0.0
54244854269101,0.09500184,0.0
54244870936081,0.094860874,0.0
54244887603060,0.094713084,0.0
54244904270039,0.09459603,0.0
54244920937018,0.0945142,0.0
54244937603997,0.094499476,0.0
54244954270976,0.09446691,0.0
54244970937956,0.09447324,0.0
54244987604935,0.09445205,0.0
54245004271914,0.09450027,0.0
54245020938893,0.09449277,0.0
54245037605872,0.0945308,0.0
54245054272851,0.094530016,0.0
54245070939831,0.09457182,0.0
54245087606810,0.094570324,0.0
54245104273789,0.094603784,0.0
54245120940768,0.09461064,0.0
54245137607747,0.09464536,0.0
54245154274726,0.09465,0.0
54245170941706,0.0946727,0.0
54245187608685,0.094656266,0.0
54245204275664,0.09473129,0.0
54245220942643,0.09471366,0.0
54245237609622,0.09473298,0.0
54245254276601,0.09478594,0.0
54245270943581,0.09481026,0.0
54245287610560,0.09484112,0.0
54245304277539,0.09491682,0.0
54245320944518,0.09498787,0.0
54245337611497,0.09503229,0.0
54245354278476,0.095066346,0.0
54245370945456,0.095145464,0.0
54245387612435,0.09518304,0.0
54245404279414,0.09525821,0.0
54245420946393,0.09528762,0.0
54245437613372,0.09534713,0.0
54245454280351,0.09540486,0.0
54245470947331,0.095476285,0.0
54245487614310,0.09552587,0.0
54245504281289,0.095573954,0.0
54245520948268,0.09563483,0.0
54245537615247,0.09567525,0.0
54245554282226,0.09563934,0.0
54245570949206,0.095456704,0.0
54245587616185,0.0953132,0.0
54245604283164,0.0951297,0.0
54245620950143,0.094954856,0.0
54245637617122,0.0948509,0.0
54245654284101,0.09473742,0.0
54245670951081,0.094686806,0.0
54245687618060,0.09462231,0.0
54245704285039,0.09458338,0.0
54245720952018,0.09459902,0.0
54245737618997,0.09464037,0.0
54245754285976,0.09461716,0.0
54245770952956,0.09462437,0.0
54245787619935,0.09464238,0.0
54245804286914,0.09467967,0.0
54245820953893,0.09469323,0.0
54245837620872,0.09472622,0.0
54245854287851,0.094745,0.0
54245870954831,0.09468983,0.0
54245887621810,0.09471323,0.0
54245904288789,0.09472644,0.0
54245920955768,0.09473809,0.0
54245937622747,0.09474461,0.0
54245954289726,0.094750226,0.0
54245970956706,0.09475529,0.0
54245987623685,0.09479651,0.0
54246004290664,0.09483614,0.0
54246020957643,0.09489131,0.0
54246037624622,0.09493309,0.0
54246054291601,0.09495382,0.0
54246070958581,0.09502791,0.0
54246087625560,0.09509463,0.0
54246104292539,0.09513453,0.0
54246120959518,0.095186196,0.0
54246137626497,0.09522278,0.0
54246154293476,0.09529781,0.0
54246170960456,0.095347166,0.0
54246187627435,0.095393054,0.0
54246204294414,0.09546518,0.0
54246220961393,0.09550863,0.0
54246237628372,0.09554543,0.0
54246254295351,0.095616065,0.0
54246270962331,0.0956571,0.0
54246287629310,0.09557198,0.0
54246304296289,0.09546599,0.0
54246320963268,0.09532046,0.0
54246337630247,0.095149994,0.0
54246354297226,0.09501695,0.0
54246370964206,0.09486932,0.0
54246387631185,0.09480065,0.0
