43620185318128,1.5031752E7,0.0
43620195083753,1.5027646E7,0.0
43620204849378,1.5026933E7,0.0
43620214645524,1.5026012E7,0.0
43620224411149,1.502403E7,0.0
43620234176774,1.50247E7,0.0
43620243942399,1.5027004E7,0.0
43620253708024,1.5033178E7,0.0
43620263504170,1.5039616E7,0.0
43620273269795,1.5049088E7,0.0
43620283035420,1.50504E7,0.0
43620292801045,1.5056057E7,0.0
43620302566670,1.5053542E7,0.0
43620312362816,1.5051434E7,0.0
43620322128441,1.5049213E7,0.0
43620331894066,1.5048947E7,0.0
43620341659691,1.504452E7,0.0
43620351425316,1.5047968E7,0.0
43620361221462,1.5051223E7,0.0
43620370987087,1.5059591E7,0.0
43620380752712,1.5054632E7,0.0
43620390518337,1.5048611E7,0.0
43620400314482,1.5047341E7,0.0
43620410080107,1.5037911E7,0.0
43620419845732,1.502991E7,0.0
43620429641878,1.5027701E7,0.0
43620439407503,1.5025021E7,0.0
43620449173128,1.502101E7,0.0
43620459441566,1.5021793E7,0.0
43620469207191,1.5019113E7,0.0
43620479003337,1.5014768E7,0.0
43620488768962,1.5013707E7,0.0
43620498565107,1.5012602E7,0.0
43620508330732,1.5007686E7,0.0
43620518126878,1.5003231E7,0.0
43620527892503,1.4994961E7,0.0
43620537688649,1.4980841E7,0.0
43620547454274,1.4974107E7,0.0
43620557250420,1.4964555E7,0.0
43620567016045,1.4959987E7,0.0
43620576781670,1.4947584E7,0.0
43620586547295,1.4934091E7,0.0
43620596312920,1.492743E7,0.0
43620606109066,1.4920011E7,0.0
43620615874691,1.4908308E7,0.0
43620625640316,1.4901017E7,0.0
43620635405941,1.4893432E7,0.0
43620645171566,1.4888011E7,0.0
43620654967712,1.4878416E7,0.0
43620664733337,1.4881405E7,0.0
43620674498962,1.4875763E7,0.0
43620684264587,1.4877648E7,0.0
43620694030212,1.4877844E7,0.0
43620703826357,1.4868346E7,0.0
43620713591982,1.486808E7,0.0
43620723357607,1.4868876E7,0.0
43620733123232,1.4870748E7,0.0
43620742888857,1.4865259E7,0.0
43620752685003,1.485956E7,0.0
43620762450628,1.4868555E7,0.0
43620772216253,1.4864085E7,0.0
43620781981878,1.4856375E7,0.0
43620791747503,1.4856947E7,0.0
43620801543649,1.4859336E7,0.0
43620811309274,1.4847884E7,0.0
43620821074899,1.4840214E7,0.0
43620830840524,1.4836904E7,0.0
43620840606149,1.482689E7,0.0
43620850402295,1.4824668E7,0.0
43620860167920,1.481478E7,0.0
43620869933545,1.4811622E7,0.0
43620879699170,1.4815493E7,0.0
43620889495316,1.4813063E7,0.0
43620899260941,1.4814571E7,0.0
43620909026566,1.4812629E7,0.0
43620918822712,1.4816833E7,0.0
43620928588337,1.4813354E7,0.0
43620938353962,1.4812057E7,0.0
43620948150107,1.480584E7,0.0
43620957915732,1.4808312E7,0.0
43620967681357,1.4807446E7,0.0
43620977446982,1.4805702E7,0.0
43620987243128,1.4809389E7,0.0
43620997008753,1.4805674E7,0.0
43621006774378,1.4804402E7,0.0
43621016570472,1.4802949E7,0.0
43621026336097,1.4797251E7,0.0
43621036101722,1.4792656E7,0.0
43621045897868,1.4791567E7,0.0
43621055663493,1.4784946E7,0.0
43621065429118,1.477901E7,0.0
43621075194743,1.476944E7,0.0
43621084960368,1.476493E7,0.0
43621094756514,1.4756241E7,0.0
43621104522139,1.473867E7,0.0
43621114287764,1.4732398E7,0.0
43621124053389,1.4729271E7,0.0
43621133819014,1.4740961E7,0.0
43621143615159,1.4751618E7,0.0
43621153380784,1.4769372E7,0.0
43621163146409,1.4777753E7,0.0
43621172912034,1.4771955E7,0.0
43621182708180,1.4778631E7,0.0
43621192473805,1.4778631E7,0.0
43621202239430,1.4784527E7,0.0
43621212035576,1.4789024E7,0.0
43621221801201,1.4794066E7,0.0
43621231566826,1.4793103E7,0.0
43621241362972,1.478218E7,0.0
43621251128597,1.4781412E7,0.0
43621260894222,1.4778016E7,0.0
43621270659847,1.4766913E7,0.0
43621280425472,1.4758254E7,0.0
43621290221618,1.4750991E7,0.0
43621299987243,1.4749718E7,0.0
43621309752868,1.473807E7,0.0
43621319518493,1.4730862E7,0.0
43621329284118,1.4728934E7,0.0
43621339080264,1.472325E7,0.0
43621348845889,1.4725596E7,0.0
43621358611514,1.4711797E7,0.0
43621368377139,1.4708891E7,0.0
43621378142764,1.4704366E7,0.0
43621387938909,1.4694854E7,0.0
43621397704534,1.4691865E7,0.0
43621407470159,1.4683665E7,0.0
43621417235784,1.46765E7,0.0
43621427001409,1.4675438E7,0.0
43621436797555,1.4673008E7,0.0
43621446563180,1.4675355E7,0.0
43621456328805,1.4669083E7,0.0
43621466094430,1.4663022E7,0.0
43621475860055,1.466368E7,0.0
43621485625680,1.4664726E7,0.0
43621495391305,1.4664417E7,0.0
43621505156930,1.4662784E7,0.0
43621514922555,1.4660969E7,0.0
43621524688180,1.4656163E7,0.0
43621535373232,1.4656903E7,0.0
43621545138857,1.4654376E7,0.0
43621554904482,1.4651653E7,0.0
43621564670107,1.465027E7,0.0
43621574435732,1.4644851E7,0.0
43621584201357,1.4646876E7,0.0
43621593966982,1.4646525E7,0.0
43621603732607,1.4639934E7,0.0
43621613498232,1.4638438E7,0.0
43621623263857,1.4630128E7,0.0
43621633029482,1.4635673E7,0.0
43621642795107,1.4634347E7,0.0
43621652560732,1.4623731E7,0.0
43621662326357,1.4624095E7,0.0
43621672091982,1.4623297E7,0.0
43621681857607,1.4616608E7,0.0
43621691623232,1.4617349E7,0.0
43621701388857,1.4612766E7,0.0
43621711154482,1.46138E7,0.0
43621720920107,1.461253E7,0.0
43621730716253,1.4613059E7,0.0
43621740481878,1.4612291E7,0.0
43621750247503,1.4609051E7,0.0
43621760013128,1.4607543E7,0.0
43621769778753,1.4610853E7,0.0
43621779574899,1.4605783E7,0.0
43621789340524,1.4605532E7,0.0
43621799106149,1.4611315E7,0.0
43621808871774,1.4611174E7,0.0
43621818637399,1.4608604E7,0.0
43621828433545,1.4611496E7,0.0
43621838199170,1.4611119E7,0.0
43621847964795,1.4606943E7,0.0
43621857730420,1.4609079E7,0.0
43621867496045,1.4605126E7,0.0
43621877261670,1.4606858E7,0.0
43621887027295,1.4603253E7,0.0
43621896792920,1.4606732E7,0.0
43621906558545,1.4607109E7,0.0
43621916324170,1.4603966E7,0.0
43621926089795,1.4601705E7,0.0
43621935855420,1.4601424E7,0.0
43621945621045,1.4598422E7,0.0
43621955386670,1.4595586E7,0.0
43621965182816,1.4589803E7,0.0
43621974948441,1.4576534E7,0.0
43621984714066,1.4574845E7,0.0
43621994510159,1.4568279E7,0.0
43622004275784,1.4559759E7,0.0
43622014041409,1.455494E7,0.0
43622023837555,1.4545164E7,0.0
43622033603180,1.4543319E7,0.0
43622043368805,1.4523723E7,0.0
43622053134430,1.4519757E7,0.0
43622062900055,1.4505188E7,0.0
43622072665680,1.4500146E7,0.0
43622082431305,1.4494559E7,0.0
43622092196930,1.4491417E7,0.0
43622101962555,1.4487672E7,0.0
43622111728180,1.4477309E7,0.0
43622121524326,1.4470967E7,0.0
43622131289951,1.4476094E7,0.0
43622141055576,1.4467754E7,0.0
43622150821201,1.4458731E7,0.0
43622160586826,1.4449513E7,0.0
43622170352451,1.4455602E7,0.0
43622180118076,1.4442222E7,0.0
43622189883701,1.4444792E7,0.0
43622199649326,1.4440001E7,0.0
43622209414951,1.4440279E7,0.0
43622219211097,1.4436161E7,0.0
43622228976722,1.4437486E7,0.0
43622238742347,1.4433184E7,0.0
43622248507972,1.4427402E7,0.0
43622258273597,1.4423534E7,0.0
43622268069743,1.4418226E7,0.0
43622277835368,1.4419456E7,0.0
43622287600993,1.4419315E7,0.0
43622297366618,1.4409677E7,0.0
43622307132243,1.4409384E7,0.0
43622316928389,1.4396589E7,0.0
43622326694014,1.4396619E7,0.0
43622336459639,1.4390234E7,0.0
43622346225264,1.4385081E7,0.0
43622355990889,1.4384326E7,0.0
43622365787034,1.4380443E7,0.0
43622375552659,1.4375569E7,0.0
43622385318284,1.437455E7,0.0
43622395083909,1.4368823E7,0.0
43622404849534,1.4373712E7,0.0
43622414645680,1.4367733E7,0.0
43622424411305,1.4366225E7,0.0
43622434176930,1.4363976E7,0.0
43622443942555,1.4362551E7,0.0
43622453708180,1.4351573E7,0.0
43622463504326,1.4349462E7,0.0
43622473269951,1.4342939E7,0.0
43622483035576,1.4343918E7,0.0
43622492801201,1.4341082E7,0.0
43622502566826,1.433678E7,0.0
43622513560368,1.4333889E7,0.0
43622523325993,1.4328862E7,0.0
43622533091618,1.4328079E7,0.0
43622542857243,1.4328568E7,0.0
43622552622868,1.4323722E7,0.0
43622562419014,1.4322186E7,0.0
43622572184639,1.4320298E7,0.0
43622581950264,1.431942E7,0.0
43622591715889,1.4319488E7,0.0
43622601481514,1.4320968E7,0.0
43622611277659,1.4321696E7,0.0
43622621043284,1.4315632E7,0.0
43622630808909,1.4316541E7,0.0
43622640574534,1.4321124E7,0.0
43622650340159,1.4316709E7,0.0
43622660105784,1.4318943E7,0.0
43622669871409,1.4307197E7,0.0
43622679637034,1.4309125E7,0.0
43622689402659,1.4300995E7,0.0
43622699168284,1.4294836E7,0.0
43622708964430,1.4293466E7,0.0
43622718730055,1.4288968E7,0.0
43622728495680,1.4278563E7,0.0
43622738261305,1.4268787E7,0.0
43622748026930,1.4257669E7,0.0
43622757823076,1.4255154E7,0.0
43622767588701,1.4246982E7,0.0
43622777354326,1.4239106E7,0.0
43622787119951,1.4229132E7,0.0
43622796885576,1.4224215E7,0.0
43622806681722,1.4216924E7,0.0
43622816416826,1.4204634E7,0.0
43622826182451,1.4198766E7,0.0
43622835948076,1.4192356E7,0.0
43622845713701,1.418776E7,0.0
43622855479326,1.418378E7,0.0
43622865244951,1.4187914E7,0.0
43622875010576,1.4179533E7,0.0
43622884776201,1.4174408E7,0.0
43622894541826,1.4171851E7,0.0
43622904307451,1.4177578E7,0.0
43622914073076,1.4173387E7,0.0
43622923838701,1.4173861E7,0.0
43622933604326,1.4161809E7,0.0
43622943369951,1.4159211E7,0.0
43622953135576,1.4159309E7,0.0
43622962901201,1.4152897E7,0.0
43622972666826,1.4156082E7,0.0
43622982432451,1.4146233E7,0.0
43622992198076,1.4145285E7,0.0
43623001994222,1.4149488E7,0.0
43623011759847,1.4147937E7,0.0
43623021525472,1.4147044E7,0.0
43623031291097,1.415238E7,0.0
43623041056722,1.4155286E7,0.0
43623050822347,1.4159964E7,0.0
43623060587972,1.4162647E7,0.0
43623070353597,1.4173751E7,0.0
43623080119222,1.4170523E7,0.0
43623089884847,1.4168066E7,0.0
43623099680993,1.4161809E7,0.0
43623109416097,1.4167534E7,0.0
43623119181722,1.4159056E7,0.0
43623128947347,1.4159894E7,0.0
43623138712972,1.4156905E7,0.0
43623148478597,1.4150425E7,0.0
43623158244222,1.414928E7,0.0
43623168009847,1.4153022E7,0.0
43623177775472,1.4147533E7,0.0
43623187541097,1.4152242E7,0.0
43623197306722,1.4157156E7,0.0
43623207072347,1.4154586E7,0.0
43623216837972,1.4157241E7,0.0
43623226634118,1.4150048E7,0.0
43623236399743,1.4143706E7,0.0
43623246195837,1.4139138E7,0.0
43623255961462,1.4139557E7,0.0
43623265727087,1.4137687E7,0.0
43623275523232,1.4145982E7,0.0
43623285288857,1.4144948E7,0.0
43623295085003,1.4157394E7,0.0
43623304850628,1.416463E7,0.0
43623314616253,1.4173861E7,0.0
43623324381878,1.417104E7,0.0
43623334178024,1.4170608E7,0.0
43623343943649,1.4168121E7,0.0
43623353709274,1.4170887E7,0.0
43623363505420,1.4173359E7,0.0
43623373271045,1.4193011E7,0.0
43623383036670,1.4211882E7,0.0
43623392832816,1.422219E7,0.0
43623402598441,1.423567E7,0.0
43623412364066,1.4247682E7,0.0
43623422129691,1.4255741E7,0.0
43623431895316,1.4258758E7,0.0
43623441691462,1.4269023E7,0.0
43623451457087,1.4290296E7,0.0
43623461222712,1.4302476E7,0.0
43623470988337,1.4322409E7,0.0
43623480753962,1.4345677E7,0.0
43623490550107,1.4370401E7,0.0
43623500285212,1.4384858E7,0.0
43623510050837,1.4396395E7,0.0
43623519816462,1.439937E7,0.0
43623529582087,1.4391898E7,0.0
43623539347712,1.4385541E7,0.0
43623549082816,1.4376058E7,0.0
43623558848441,1.4369184E7,0.0
43623568614066,1.436431E7,0.0
43623578379691,1.4359268E7,0.0
43623586041722,1.4339855E7,0.0
43623595807347,1.4327142E7,0.0
43623605572972,1.4306261E7,0.0
43623615338597,1.4306316E7,0.0
43623625104222,1.4307448E7,0.0
43623634869847,1.4296611E7,0.0
43623644635472,1.4298468E7,0.0
43623654401097,1.4294264E7,0.0
43623664166722,1.4295326E7,0.0
43623673932347,1.4301317E7,0.0
43623683697972,1.4297461E7,0.0
43623693463597,1.4292364E7,0.0
43623703259743,1.4289975E7,0.0
43623713025368,1.4298927E7,0.0
43623722821514,1.4297266E7,0.0
43623732587139,1.4303663E7,0.0
43623742383284,1.4297391E7,0.0
43623752148909,1.4299585E7,0.0
43623761945055,1.4307087E7,0.0
43623771710680,1.4303761E7,0.0
43623781506826,1.4309167E7,0.0
43623791272451,1.4310241E7,0.0
43623801038076,1.4314726E7,0.0
43623810803701,1.4304263E7,0.0
43623820569326,1.4311905E7,0.0
43623830334951,1.4308399E7,0.0
43623840100576,1.4320047E7,0.0
43623849866201,1.4331891E7,0.0
43623859631826,1.4338891E7,0.0
43623869397451,1.4350441E7,0.0
43623879163076,1.4349854E7,0.0
43623888928701,1.4354672E7,0.0
43623898694326,1.4352396E7,0.0
43623908459951,1.4349881E7,0.0
43623918225576,1.434945E7,0.0
43623927991201,1.4343444E7,0.0
43623937756826,1.4348318E7,0.0
43623947522451,1.4355945E7,0.0
43623957288076,1.4359785E7,0.0
43623967053701,1.4364591E7,0.0
43623976849847,1.4379271E7,0.0
43623986615472,1.4379143E7,0.0
43623996381097,1.4383252E7,0.0
43624006146722,1.438286E7,0.0
43624015912347,1.4393015E7,0.0
43624025677972,1.4396717E7,0.0
43624035443597,1.4403546E7,0.0
43624045209222,1.4411464E7,0.0
43624054974847,1.4418296E7,0.0
43624064740472,1.4421396E7,0.0
43624074506097,1.4425755E7,0.0
43624084271722,1.4425712E7,0.0
43624094037347,1.4428589E7,0.0
43624103802972,1.4415292E7,0.0
43624113568597,1.4419009E7,0.0
43624123364743,1.4414288E7,0.0
43624133130368,1.441743E7,0.0
43624142895993,1.4413477E7,0.0
43624152661618,1.4410962E7,0.0
43624162427243,1.441088E7,0.0
43624172223389,1.4408729E7,0.0
43624181989014,1.4400878E7,0.0
43624191754639,1.439638E7,0.0
43624201520264,1.4393853E7,0.0
43624211285889,1.4384313E7,0.0
43624221082034,1.4377524E7,0.0
43624230847659,1.4367244E7,0.0
43624240613284,1.4364674E7,0.0
43624250378909,1.4354534E7,0.0
43624260144534,1.434829E7,0.0
43624269940680,1.4333234E7,0.0
43624279706305,1.4329657E7,0.0
43624289471930,1.4314601E7,0.0
43624299237555,1.4307295E7,0.0
43624309003180,1.4296709E7,0.0
43624318768805,1.4283216E7,0.0
43624328534430,1.4280337E7,0.0
43624338300055,1.4268451E7,0.0
43624348065680,1.4252054E7,0.0
43624357831305,1.4251773E7,0.0
43624367627399,1.4239776E7,0.0
43624377393024,1.422599E7,0.0
43624387158649,1.4208587E7,0.0
43624396924274,1.4187592E7,0.0
43624406689899,1.4166068E7,0.0
43624416486045,1.4146918E7,0.0
43624426251670,1.4140242E7,0.0
43624436017295,1.4113355E7,0.0
43624445782920,1.4105785E7,0.0
43624455548545,1.4098381E7,0.0
43624465344691,1.408968E7,0.0
43624475110316,1.4075725E7,0.0
43624484875941,1.4068505E7,0.0
43624494641566,1.4064133E7,0.0
43624504407191,1.4057527E7,0.0
43624514203337,1.4060752E7,0.0
43624523968962,1.4063114E7,0.0
43624533734587,1.4064077E7,0.0
43624543500212,1.4072164E7,0.0
43624553265837,1.4072402E7,0.0
43624563161670,1.4080572E7,0.0
43624572896774,1.4086522E7,0.0
43624582662399,1.4092935E7,0.0
43624592428024,1.4106134E7,0.0
43624602193649,1.4101747E7,0.0
43624611959274,1.4110338E7,0.0
43624621724899,1.4122209E7,0.0
43624631490524,1.4120086E7,0.0
43624641256149,1.4123173E7,0.0
43624651021774,1.412362E7,0.0
43624660787399,1.4124486E7,0.0
43624670553024,1.4135173E7,0.0
43624680318649,1.413059E7,0.0
43624690114795,1.4133496E7,0.0
43624699880420,1.4130186E7,0.0
43624709676566,1.4138593E7,0.0
43624719442191,1.4147561E7,0.0
43624729207816,1.414273E7,0.0
43624739003962,1.4152086E7,0.0
43624748769587,1.415555E7,0.0
43624758565732,1.4164364E7,0.0
43624768300837,1.4162981E7,0.0
43624778066462,1.4162158E7,0.0
43624787832087,1.4161543E7,0.0
43624797597712,1.4168681E7,0.0
43624807363337,1.4164741E7,0.0
43624817128962,1.4169783E7,0.0
43624826894587,1.416192E7,0.0
43624836660212,1.4164685E7,0.0
43624846425837,1.4163611E7,0.0
43624856191462,1.4164392E7,0.0
43624865957087,1.4151792E7,0.0
43624875722712,1.4146667E7,0.0
43624885488337,1.4135311E7,0.0
43624895253962,1.4133621E7,0.0
43624905050107,1.4129347E7,0.0
43624914815732,1.4127365E7,0.0
43624924581357,1.4120282E7,0.0
43624934346982,1.411989E7,0.0
43624944112607,1.4116525E7,0.0
43624953908753,1.4118663E7,0.0
43624963674378,1.4119835E7,0.0
43624973440003,1.4123299E7,0.0
43624983205628,1.4120563E7,0.0
43624992971253,1.4131834E7,0.0
43625002767399,1.4133734E7,0.0
43625012533024,1.4134585E7,0.0
43625022298649,1.4136149E7,0.0
43625032064274,1.413316E7,0.0
43625041829899,1.4131568E7,0.0
43625051626045,1.4122182E7,0.0
43625061391670,1.4120478E7,0.0
43625071157295,1.4116163E7,0.0
43625080953441,1.4115004E7,0.0
43625090719066,1.4107294E7,0.0
43625100515212,1.4106272E7,0.0
43625110280837,1.410049E7,0.0
43625120046462,1.4099149E7,0.0
43625129842607,1.4096343E7,0.0
43625139608232,1.4093492E7,0.0
43625149404378,1.4093786E7,0.0
43625159170003,1.4085476E7,0.0
43625168935628,1.4084176E7,0.0
43625178701253,1.4080085E7,0.0
43625188497399,1.4078059E7,0.0
43625198263024,1.4080587E7,0.0
43625208028649,1.4080783E7,0.0
43625217824743,1.4081355E7,0.0
43625227590368,1.4072375E7,0.0
43625237355993,1.4076383E7,0.0
43625247152139,1.4072528E7,0.0
43625256917764,1.4075125E7,0.0
43625266683389,1.4077625E7,0.0
43625276449014,1.4072473E7,0.0
43625286214639,1.4067819E7,0.0
43625296010784,1.407113E7,0.0
43625305776409,1.4068994E7,0.0
43625315542034,1.4072164E7,0.0
43625325307659,1.4070475E7,0.0
43625335073284,1.4067415E7,0.0
43625344869430,1.407384E7,0.0
43625354635055,1.4073492E7,0.0
43625364400680,1.4074091E7,0.0
43625374166305,1.4070377E7,0.0
43625383962451,1.4073338E7,0.0
43625393728076,1.4076787E7,0.0
43625403493701,1.4076872E7,0.0
43625413289847,1.4077389E7,0.0
43625423055472,1.4083827E7,0.0
43625432821097,1.4079568E7,0.0
43625442617243,1.4079917E7,0.0
43625452382868,1.4081312E7,0.0
43625462148493,1.4083172E7,0.0
43625471914118,1.4079455E7,0.0
43625481679743,1.4077793E7,0.0
43625491445368,1.4081159E7,0.0
43625501210993,1.408211E7,0.0
43625510976618,1.4083561E7,0.0
43625520742243,1.4084289E7,0.0
43625530507868,1.4090029E7,0.0
43625543360212,1.4089848E7,0.0
43625553125837,1.409538E7,0.0
43625562891462,1.4099988E7,0.0
43625572657087,1.4097515E7,0.0
43625582422712,1.4101734E7,0.0
43625592218857,1.4101007E7,0.0
43625601984482,1.4103117E7,0.0
43625611750107,1.4110546E7,0.0
43625621515732,1.4112768E7,0.0
43625631281357,1.4118718E7,0.0
43625641077503,1.412499E7,0.0
43625650843128,1.4121497E7,0.0
43625660608753,1.4123201E7,0.0
43625670374378,1.4130464E7,0.0
43625680140003,1.4130311E7,0.0
43625689936149,1.4130703E7,0.0
43625699701774,1.4135564E7,0.0
43625709467399,1.4133832E7,0.0
43625719233024,1.4135004E7,0.0
43625728998649,1.4133539E7,0.0
43625738794795,1.4139208E7,0.0
43625748560420,1.4139419E7,0.0
43625758326045,1.4144E7,0.0
43625768091670,1.4147197E7,0.0
43625777857295,1.4150061E7,0.0
43625787653441,1.415692E7,0.0
43625797419066,1.4162088E7,0.0
43625807184691,1.4159866E7,0.0
43625816950316,1.4172717E7,0.0
43625826715941,1.4161598E7,0.0
43625836512087,1.4164924E7,0.0
43625846277712,1.4165649E7,0.0
43625856043337,1.4158107E7,0.0
43625865808962,1.4162366E7,0.0
43625875574587,1.4149837E7,0.0
43625885370732,1.4148889E7,0.0
43625895136357,1.4148344E7,0.0
43625904901982,1.4148595E7,0.0
43625914667607,1.4149908E7,0.0
43625924433232,1.4145731E7,0.0
43625934229378,1.4133245E7,0.0
43625943995003,1.4138217E7,0.0
43625953760628,1.4131792E7,0.0
43625963556774,1.41308E7,0.0
43625973322399,1.4137589E7,0.0
43625983118493,1.4134377E7,0.0
43625992884118,1.4136947E7,0.0
43626002649743,1.4131051E7,0.0
43626012445889,1.4130464E7,0.0
43626022211514,1.4133704E7,0.0
43626032007659,1.4129179E7,0.0
43626041773284,1.4129515E7,0.0
43626051538909,1.4124418E7,0.0
43626061304534,1.4123494E7,0.0
43626071100680,1.4124739E7,0.0
43626080866305,1.4125535E7,0.0
43626090631930,1.412816E7,0.0
43626100428076,1.4127407E7,0.0
43626110193701,1.4130339E7,0.0
43626119959326,1.4129473E7,0.0
43626129755472,1.4121469E7,0.0
43626139521097,1.4124626E7,0.0
43626149286722,1.4130562E7,0.0
43626159052347,1.4126609E7,0.0
43626168817972,1.4129445E7,0.0
43626178583597,1.4131541E7,0.0
43626188349222,1.4130479E7,0.0
43626198114847,1.4135772E7,0.0
43626207880472,1.4141751E7,0.0
43626217646097,1.4138734E7,0.0
43626227442243,1.4142659E7,0.0
43626237207868,1.4144293E7,0.0
43626246973493,1.4141736E7,0.0
43626256739118,1.4144348E7,0.0
43626266504743,1.4152352E7,0.0
43626276270368,1.4151373E7,0.0
43626286035993,1.4151403E7,0.0
43626295801618,1.4159056E7,0.0
43626305567243,1.4154699E7,0.0
43626315332868,1.4158973E7,0.0
43626325098493,1.4161332E7,0.0
43626334864118,1.4162409E7,0.0
43626344629743,1.4165398E7,0.0
43626354395368,1.4159616E7,0.0
43626364160993,1.416333E7,0.0
43626373957139,1.4170887E7,0.0
43626383722764,1.4171389E7,0.0
43626393488389,1.4171557E7,0.0
43626403254014,1.4173234E7,0.0
43626413019639,1.4178738E7,0.0
43626422815784,1.4176559E7,0.0
43626432581409,1.4180638E7,0.0
43626442347034,1.4179463E7,0.0
43626452112659,1.4179937E7,0.0
43626461878284,1.418058E7,0.0
43626471674430,1.4185316E7,0.0
43626481440055,1.4198307E7,0.0
43626491205680,1.4188501E7,0.0
43626500971305,1.4192509E7,0.0
43626510736930,1.4191866E7,0.0
43626520533076,1.4195415E7,0.0
43626530298701,1.4198334E7,0.0
43626540064326,1.4204787E7,0.0
43626549829951,1.4201798E7,0.0
43626559595576,1.4208474E7,0.0
43626569361201,1.4213461E7,0.0
43626579126826,1.421441E7,0.0
43626588892451,1.4222664E7,0.0
43626598658076,1.4221312E7,0.0
43626608423701,1.4221477E7,0.0
43626615623284,1.4221798E7,0.0
43626625388909,1.4224243E7,0.0
43626635154534,1.4229845E7,0.0
43626644920159,1.4231968E7,0.0
43626654685784,1.4225375E7,0.0
43626664481930,1.4223475E7,0.0
43626674247555,1.4224215E7,0.0
43626684013180,1.421846E7,0.0
43626693778805,1.4218503E7,0.0
43626703544430,1.4206295E7,0.0
43626713340576,1.4204897E7,0.0
43626723106201,1.4214103E7,0.0
43626732871826,1.4210652E7,0.0
43626742637451,1.420501E7,0.0
43626752403076,1.4205457E7,0.0
43626762199222,1.420114E7,0.0
43626771964847,1.4207553E7,0.0
43626781730472,1.4202064E7,0.0
43626791496097,1.4206981E7,0.0
43626801261722,1.4202496E7,0.0
43626811057868,1.4198543E7,0.0
43626820823493,1.4202091E7,0.0
43626830589118,1.4201938E7,0.0
43626840385212,1.4205457E7,0.0
43626850150837,1.4195847E7,0.0
43626859946982,1.4205261E7,0.0
43626869712607,1.4207427E7,0.0
43626879478232,1.4202915E7,0.0
43626889274378,1.4205625E7,0.0
43626899040003,1.4211127E7,0.0
43626908836149,1.4209508E7,0.0
43626918601774,1.4210472E7,0.0
43626928367399,1.421124E7,0.0
43626938133024,1.4208921E7,0.0
43626947898649,1.4213795E7,0.0
43626957694795,1.4207859E7,0.0
43626967460420,1.4210863E7,0.0
43626977226045,1.4212372E7,0.0
43626986991670,1.420811E7,0.0
43626996757295,1.4216297E7,0.0
43627006553441,1.4216658E7,0.0
43627016319066,1.4217163E7,0.0
43627026084691,1.4221716E7,0.0
43627035850316,1.4213559E7,0.0
43627045615941,1.4216478E7,0.0
43627055412087,1.4221324E7,0.0
43627065177712,1.4225194E7,0.0
43627074943337,1.4227498E7,0.0
43627084708962,1.4224035E7,0.0
43627094474587,1.4229524E7,0.0
43627104270732,1.4222499E7,0.0
43627114036357,1.4230487E7,0.0
43627123801982,1.4227651E7,0.0
43627133567607,1.4229621E7,0.0
43627143333232,1.4229398E7,0.0
43627153098857,1.4229132E7,0.0
43627162864482,1.4236353E7,0.0
43627172630107,1.4237304E7,0.0
43627182395732,1.4237429E7,0.0
43627192161357,1.4235068E7,0.0
43627201957503,1.4236117E7,0.0
43627211723128,1.4241857E7,0.0
43627221488753,1.4239718E7,0.0
43627231254378,1.4243882E7,0.0
43627241020003,1.4244259E7,0.0
43627250785628,1.4240557E7,0.0
43627260551253,1.4248114E7,0.0
43627270316878,1.4259777E7,0.0
43627280082503,1.426637E7,0.0
43627289848128,1.4261089E7,0.0
43627299644274,1.4258256E7,0.0
43627309409899,1.4259973E7,0.0
43627319175524,1.4269583E7,0.0
43627328941149,1.42632E7,0.0
43627338706774,1.4270657E7,0.0
43627348472399,1.4269304E7,0.0
43627358238024,1.427788E7,0.0
43627368003649,1.4280518E7,0.0
43627377769274,1.4283118E7,0.0
43627387534899,1.4276552E7,0.0
43627397331045,1.4286022E7,0.0
43627407096670,1.4287209E7,0.0
43627416862295,1.4283397E7,0.0
43627426627920,1.4287196E7,0.0
43627436393545,1.4293481E7,0.0
43627446159170,1.4293677E7,0.0
43627455924795,1.4295436E7,0.0
43627465690420,1.4293955E7,0.0
43627475456045,1.4285798E7,0.0
43627485221670,1.4292921E7,0.0
43627494987295,1.4283956E7,0.0
43627504752920,1.4286594E7,0.0
43627514518545,1.4283843E7,0.0
43627524284170,1.427792E7,0.0
43627534049795,1.4276608E7,0.0
43627543815420,1.4268925E7,0.0
43627553581045,1.4272991E7,0.0
43627563346670,1.4269778E7,0.0
43627573112295,1.4272906E7,0.0
43627582877920,1.4264944E7,0.0
43627592884587,1.4266887E7,0.0
43627602650212,1.4270002E7,0.0
43627612415837,1.4252835E7,0.0
43627622181462,1.426704E7,0.0
43627631947087,1.4263549E7,0.0
43627641743232,1.4260098E7,0.0
43627651508857,1.4271189E7,0.0
43627661274482,1.4268087E7,0.0
43627671040107,1.4265489E7,0.0
43627680805732,1.4267627E7,0.0
43627690601878,1.4267627E7,0.0
43627700367503,1.4260517E7,0.0
43627710133128,1.4263521E7,0.0
43627719898753,1.4266076E7,0.0
43627729664378,1.4262487E7,0.0
43627739460524,1.4267863E7,0.0
43627749226149,1.4266189E7,0.0
43627758991774,1.426521E7,0.0
43627768757399,1.4265602E7,0.0
43627778523024,1.4266229E7,0.0
43627788319170,1.4265868E7,0.0
43627798084795,1.4262389E7,0.0
43627807850420,1.4268717E7,0.0
43627817616045,1.4264262E7,0.0
43627827381670,1.4268282E7,0.0
43627837177764,1.4268549E7,0.0
43627846943389,1.4271287E7,0.0
43627856709014,1.4263228E7,0.0
43627866474639,1.4270699E7,0.0
43627876240264,1.42632E7,0.0
43627886036409,1.4264219E7,0.0
43627895802034,1.4270965E7,0.0
43627905567659,1.4269904E7,0.0
43627915333284,1.4265253E7,0.0
43627925129430,1.426827E7,0.0
43627934895055,1.4266985E7,0.0
43627944660680,1.4262625E7,0.0
43627954456826,1.4262989E7,0.0
43627964222451,1.4266287E7,0.0
43627973988076,1.4263311E7,0.0
43627983784222,1.4265155E7,0.0
43627993549847,1.427274E7,0.0
43628003315472,1.4272682E7,0.0
43628013081097,1.4275729E7,0.0
43628022846722,1.4277963E7,0.0
43628032642868,1.4268953E7,0.0
43628042408493,1.4275338E7,0.0
43628052174118,1.4273438E7,0.0
43628061939743,1.4273899E7,0.0
43628071705368,1.427841E7,0.0
43628081501514,1.4276106E7,0.0
43628091267139,1.4277516E7,0.0
43628101032764,1.4275769E7,0.0
43628110798389,1.4279722E7,0.0
43628120564014,1.4279612E7,0.0
43628130360159,1.428161E7,0.0
43628140125784,1.4285113E7,0.0
43628149891409,1.4286049E7,0.0
43628159657034,1.4291345E7,0.0
43628169422659,1.4286777E7,0.0
43628179218805,1.4288145E7,0.0
43628188984430,1.4287041E7,0.0
43628198750055,1.4283816E7,0.0
43628208515680,1.4288062E7,0.0
43628218281305,1.4288788E7,0.0
43628228077451,1.4290198E7,0.0
43628237843076,1.4286386E7,0.0
43628247608701,1.428422E7,0.0
43628257374326,1.4281916E7,0.0
43628267139951,1.4284277E7,0.0
43628276936097,1.4282809E7,0.0
43628286701722,1.4285226E7,0.0
43628296467347,1.4280086E7,0.0
43628306232972,1.4271467E7,0.0
43628315998597,1.4267221E7,0.0
43628325794743,1.4262487E7,0.0
43628335560368,1.425933E7,0.0
43628345325993,1.4257375E7,0.0
43628355091618,1.4246816E7,0.0
43628364857243,1.4249888E7,0.0
43628374653389,1.424268E7,0.0
43628384419014,1.4243157E7,0.0
43628394184639,1.4239467E7,0.0
43628403950264,1.4231075E7,0.0
43628413715889,1.4234147E7,0.0
43628423512034,1.4227317E7,0.0
43628433277659,1.4228141E7,0.0
43628443043284,1.4228266E7,0.0
43628452808909,1.4218644E7,0.0
43628462574534,1.4217441E7,0.0
43628472370680,1.4224384E7,0.0
43628482136305,1.4219452E7,0.0
43628491901930,1.4217037E7,0.0
43628501667555,1.4217665E7,0.0
43628511433180,1.4216756E7,0.0
43628521229326,1.4214214E7,0.0
43628530994951,1.4209716E7,0.0
43628540760576,1.4212357E7,0.0
43628550526201,1.420874E7,0.0
43628560291826,1.4202957E7,0.0
43628570087920,1.4200192E7,0.0
43628579853545,1.4209257E7,0.0
43628589619170,1.4198166E7,0.0
43628599384795,1.420054E7,0.0
43628609150420,1.4194871E7,0.0
43628618946566,1.4195064E7,0.0
43628628712191,1.420163E7,0.0
43628638477816,1.4199521E7,0.0
43628648243441,1.4197747E7,0.0
43628658009066,1.4196156E7,0.0
43628667560003,1.4198726E7,0.0
43628677325628,1.419649E7,0.0
43628687091253,1.4188669E7,0.0
43628696856878,1.4197328E7,0.0
43628706622503,1.4195358E7,0.0
43628716418649,1.4194813E7,0.0
43628726184274,1.4193249E7,0.0
43628735949899,1.4188933E7,0.0
43628745715524,1.4192301E7,0.0
43628755481149,1.4188528E7,0.0
43628765277295,1.4187118E7,0.0
43628775042920,1.418646E7,0.0
43628784808545,1.4185778E7,0.0
43628794574170,1.4181476E7,0.0
43628804339795,1.4183459E7,0.0
43628814135941,1.4184239E7,0.0
43628823901566,1.4184101E7,0.0
43628833667191,1.4185371E7,0.0
43628843432816,1.4188513E7,0.0
43628853198441,1.4194339E7,0.0
43628862994587,1.4196575E7,0.0
43628872760212,1.4190288E7,0.0
43628882525837,1.4190903E7,0.0
43628892291462,1.4194394E7,0.0
43628902057087,1.4193277E7,0.0
43628911853232,1.4192971E7,0.0
43628921618857,1.4202006E7,0.0
43628931384482,1.420054E7,0.0
43628941150107,1.4199004E7,0.0
43628950915732,1.4199592E7,0.0
43628960711878,1.4201364E7,0.0
43628970477503,1.4198445E7,0.0
43628980243128,1.4199592E7,0.0
43628990008753,1.4199213E7,0.0
43628999774378,1.4202649E7,0.0
43629009540003,1.41998E7,0.0
43629019305628,1.4202593E7,0.0
43629029071253,1.4201532E7,0.0
43629038836878,1.4207385E7,0.0
43629048602503,1.4209229E7,0.0
43629058368128,1.4206142E7,0.0
43629068133753,1.4209872E7,0.0
43629077899378,1.4206797E7,0.0
43629087665003,1.4212148E7,0.0
43629097461149,1.4209508E7,0.0
43629107226774,1.4209382E7,0.0
43629116992399,1.4202523E7,0.0
43629126788545,1.4206546E7,0.0
43629136554170,1.4204995E7,0.0
43629146319795,1.419723E7,0.0
43629156115941,1.4189758E7,0.0
43629165851045,1.4189003E7,0.0
43629175616670,1.4180384E7,0.0
43629185382295,1.4181908E7,0.0
43629195147920,1.4169715E7,0.0
43629204913545,1.4162228E7,0.0
43629214648649,1.4162017E7,0.0
43629224414274,1.4155803E7,0.0
43629234179899,1.4150801E7,0.0
43629243945524,1.4147518E7,0.0
43629253711149,1.414344E7,0.0
43629263476774,1.4145285E7,0.0
43629273242399,1.4140129E7,0.0
43629283038545,1.4137477E7,0.0
43629292804170,1.4129305E7,0.0
43629302600316,1.4130577E7,0.0
43629312365941,1.4129167E7,0.0
43629322131566,1.4123705E7,0.0
43629331927712,1.4127392E7,0.0
43629341693337,1.4124403E7,0.0
43629351489482,1.4121441E7,0.0
43629361255107,1.4120591E7,0.0
43629371020732,1.4116357E7,0.0
43629380786357,1.4105057E7,0.0
43629390551982,1.4107E7,0.0
43629400317607,1.410584E7,0.0
43629410083232,1.4107419E7,0.0
43629419848857,1.4106287E7,0.0
43629429614482,1.4099051E7,0.0
43629439380107,1.4107474E7,0.0
43629449145732,1.4100853E7,0.0
43629458911357,1.4095211E7,0.0
43629468676982,1.4092626E7,0.0
43629478442607,1.4093773E7,0.0
43629488238753,1.4089539E7,0.0
43629498004378,1.4093716E7,0.0
43629507770003,1.4091439E7,0.0
43629517566149,1.4090433E7,0.0
43629527331774,1.408905E7,0.0
43629537097399,1.4085265E7,0.0
43629546893493,1.4085742E7,0.0
43629556659118,1.4085476E7,0.0
43629566424743,1.4078812E7,0.0
43629576190368,1.4080015E7,0.0
43629585955993,1.4075615E7,0.0
43629595721618,1.407493E7,0.0
43629605487243,1.4074789E7,0.0
43629615252868,1.4071996E7,0.0
43629625018493,1.4075964E7,0.0
43629634784118,1.4070251E7,0.0
43629644765680,1.4076062E7,0.0
43629654531305,1.4073351E7,0.0
43629664296930,1.4072975E7,0.0
43629674062555,1.4071941E7,0.0
43629683828180,1.4071858E7,0.0
43629693593805,1.4069426E7,0.0
43629703359430,1.4069328E7,0.0
43629713125055,1.4070656E7,0.0
43629722890680,1.4065277E7,0.0
43629732656305,1.4074593E7,0.0
43629742421930,1.4069915E7,0.0
43629752187555,1.4068505E7,0.0
43629761953180,1.4066941E7,0.0
43629771718805,1.4070013E7,0.0
43629781514951,1.4070824E7,0.0
43629791280576,1.4066981E7,0.0
43629801046201,1.4065124E7,0.0
43629810842347,1.4079595E7,0.0
43629820607972,1.4064426E7,0.0
43629830373597,1.4062597E7,0.0
43629840169743,1.4067877E7,0.0
43629849935368,1.4062499E7,0.0
43629859700993,1.4066675E7,0.0
43629869466618,1.4070166E7,0.0
43629879232243,1.4071772E7,0.0
43629888997868,1.4070068E7,0.0
43629898763493,1.4070405E7,0.0
43629908529118,1.4075153E7,0.0
43629918294743,1.4068226E7,0.0
43629928060368,1.4076759E7,0.0
43629937825993,1.4070166E7,0.0
43629947591618,1.406912E7,0.0
43629957357243,1.406729E7,0.0
43629967153389,1.4071592E7,0.0
43629976919014,1.406729E7,0.0
43629986715159,1.4078142E7,0.0
43629996480784,1.4077485E7,0.0
43630006246409,1.4069104E7,0.0
43630016042555,1.4068743E7,0.0
43630025808180,1.407641E7,0.0
43630035604326,1.4063254E7,0.0
43630045369951,1.4064133E7,0.0
43630055166097,1.4058573E7,0.0
43630064931722,1.4044493E7,0.0
43630074727868,1.4044815E7,0.0
43630084493493,1.4041379E7,0.0
43630094289639,1.4037315E7,0.0
43630104055264,1.4023193E7,0.0
43630113851409,1.4020736E7,0.0
43630123617034,1.4017719E7,0.0
43630133413180,1.4004813E7,0.0
43630143178805,1.4004841E7,0.0
43630152944430,1.3998709E7,0.0
43630162710055,1.398914E7,0.0
43630172475680,1.3984517E7,0.0
43630182241305,1.3984923E7,0.0
43630192006930,1.398146E7,0.0
43630201772555,1.3976347E7,0.0
43630211538180,1.3971666E7,0.0
43630221303805,1.3968371E7,0.0
43630231099951,1.3958846E7,0.0
43630240865576,1.3962882E7,0.0
43630250631201,1.3953244E7,0.0
43630260396826,1.3957699E7,0.0
43630270162451,1.3953734E7,0.0
43630279928076,1.3954949E7,0.0
43630289693701,1.3952712E7,0.0
43630299459326,1.3947434E7,0.0
43630309224951,1.3941107E7,0.0
43630318990576,1.3944417E7,0.0
43630328786722,1.3937977E7,0.0
43630338552347,1.3935352E7,0.0
43630348317972,1.3936077E7,0.0
43630358083597,1.3937837E7,0.0
43630367849222,1.3935882E7,0.0
43630377645368,1.3931344E7,0.0
43630387410993,1.3924806E7,0.0
43630397176618,1.3923297E7,0.0
43630406942243,1.3924848E7,0.0
43630416707868,1.3922921E7,0.0
43630426503962,1.3914666E7,0.0
43630436269587,1.3915642E7,0.0
43630446035212,1.3912458E7,0.0
43630455800837,1.3911356E7,0.0
43630465566462,1.3912038E7,0.0
43630475362607,1.3909135E7,0.0
43630485128232,1.3910266E7,0.0
43630494893857,1.3908409E7,0.0
43630504659482,1.3907794E7,0.0
43630514425107,1.3904163E7,0.0
43630524221253,1.3902275E7,0.0
43630533986878,1.3903756E7,0.0
43630543752503,1.3904218E7,0.0
43630553518128,1.3904218E7,0.0
43630563283753,1.3907192E7,0.0
43630573049378,1.3896591E7,0.0
43630582815003,1.3898799E7,0.0
43630592580628,1.3899831E7,0.0
43630602346253,1.389254E7,0.0
43630612111878,1.3897876E7,0.0
43630622167816,1.3895697E7,0.0
43630631933441,1.3896688E7,0.0
43630641699066,1.3896395E7,0.0
43630651464691,1.3895501E7,0.0
43630661260837,1.3897582E7,0.0
43630671026462,1.3897108E7,0.0
43630680792087,1.3896214E7,0.0
43630690588232,1.3898995E7,0.0
43630700353857,1.3902248E7,0.0
43630710119482,1.3889076E7,0.0
43630719915628,1.3896382E7,0.0
43630729681253,1.3891172E7,0.0
43630739446878,1.3894972E7,0.0
43630749212503,1.3897025E7,0.0
43630759008649,1.3893616E7,0.0
43630768774274,1.3893393E7,0.0
43630778539899,1.3895572E7,0.0
43630788336045,1.389697E7,0.0
43630798101670,1.3890544E7,0.0
43630807867295,1.3895936E7,0.0
43630817663441,1.3890251E7,0.0
43630827429066,1.3896829E7,0.0
43630837194691,1.3894216E7,0.0
43630846960316,1.3896872E7,0.0
43630856725941,1.3891157E7,0.0
43630866491566,1.3892653E7,0.0
43630876257191,1.3897835E7,0.0
43630886022816,1.3895795E7,0.0
43630895788441,1.3892038E7,0.0
43630905554066,1.3890823E7,0.0
43630915350212,1.390028E7,0.0
43630925115837,1.3897876E7,0.0
43630934881462,1.3897667E7,0.0
43630944647087,1.3893561E7,0.0
43630954412712,1.3892989E7,0.0
43630964208857,1.3896033E7,0.0
43630973974482,1.3901984E7,0.0
43630983740107,1.3884872E7,0.0
43630993505732,1.3877903E7,0.0
43631003271357,1.3881268E7,0.0
43631013067503,1.3879677E7,0.0
43631022833128,1.386881E7,0.0
43631032598753,1.3866714E7,0.0
43631042364378,1.3853194E7,0.0
43631052130003,1.3851294E7,0.0
43631061926149,1.383815E7,0.0
43631071691774,1.3835035E7,0.0
43631081457399,1.382801E7,0.0
43631091223024,1.3816962E7,0.0
43631100988649,1.3810105E7,0.0
43631110784795,1.3807407E7,0.0
43631120550420,1.3803093E7,0.0
43631130316045,1.3793706E7,0.0
43631140081670,1.3796151E7,0.0
43631149847295,1.379407E7,0.0
43631159643441,1.3782924E7,0.0
43631169409066,1.378126E7,0.0
43631179174691,1.3774863E7,0.0
43631188940316,1.3768159E7,0.0
43631198705941,1.3765002E7,0.0
43631208502034,1.376665E7,0.0
43631218267659,1.3763998E7,0.0
43631228033284,1.375563E7,0.0
43631237798909,1.3750224E7,0.0
43631247564534,1.3748116E7,0.0
43631257360680,1.3752347E7,0.0
43631267126305,1.3750615E7,0.0
43631276891930,1.3739974E7,0.0
43631286657555,1.3740001E7,0.0
43631296423180,1.3732151E7,0.0
43631306219326,1.3725768E7,0.0
43631315984951,1.3731172E7,0.0
43631325750576,1.372053E7,0.0
43631335516201,1.3724777E7,0.0
43631345281826,1.3714035E7,0.0
43631355077972,1.3707108E7,0.0
43631364843597,1.3715684E7,0.0
43631374609222,1.3712414E7,0.0
43631384374847,1.3712429E7,0.0
43631394140472,1.370638E7,0.0
43631403936618,1.3699285E7,0.0
43631413702243,1.3700068E7,0.0
43631423467868,1.3694579E7,0.0
43631433233493,1.3697177E7,0.0
43631442999118,1.3691645E7,0.0
43631452795264,1.3686169E7,0.0
43631462560889,1.3691379E7,0.0
43631472326514,1.3687762E7,0.0
43631482092139,1.3688417E7,0.0
43631491857764,1.3680542E7,0.0
43631501653909,1.3686811E7,0.0
43631511419534,1.3681714E7,0.0
43631521185159,1.3678905E7,0.0
43631530950784,1.3673153E7,0.0
43631540716409,1.3675527E7,0.0
43631550482034,1.3680527E7,0.0
43631560247659,1.3677718E7,0.0
43631570013284,1.3676393E7,0.0
43631579778909,1.3677216E7,0.0
43631589544534,1.367941E7,0.0
43631599340680,1.3671614E7,0.0
43631609106305,1.3674144E7,0.0
43631618871930,1.367054E7,0.0
43631628637555,1.3675653E7,0.0
43631638403180,1.3673306E7,0.0
43631648168805,1.3668989E7,0.0
43631657934430,1.3672287E7,0.0
43631667700055,1.3667649E7,0.0
43631677465680,1.3670681E7,0.0
43631687231305,1.3676252E7,0.0
43631699025264,1.3668276E7,0.0
43631708790889,1.3665679E7,0.0
43631718556514,1.3663974E7,0.0
43631728322139,1.3667355E7,0.0
43631738118284,1.3663794E7,0.0
43631747883909,1.3667242E7,0.0
43631757649534,1.3660945E7,0.0
43631767445680,1.3660973E7,0.0
43631777211305,1.3666391E7,0.0
43631786976930,1.3664562E7,0.0
43631796773076,1.3673697E7,0.0
43631806538701,1.3669102E7,0.0
43631816304326,1.3667649E7,0.0
43631826069951,1.3669074E7,0.0
43631835866097,1.3668025E7,0.0
43631845631722,1.3669842E7,0.0
43631855397347,1.366737E7,0.0
43631865193493,1.3669044E7,0.0
43631874959118,1.3665259E7,0.0
43631884724743,1.3669032E7,0.0
43631894520889,1.3666544E7,0.0
43631904286514,1.3656166E7,0.0
43631914052139,1.3653905E7,0.0
43631923817764,1.364569E7,0.0
43631933613909,1.3644365E7,0.0
43631943379534,1.3632143E7,0.0
43631953145159,1.3628147E7,0.0
43631962941253,1.3626501E7,0.0
43631972706878,1.3621345E7,0.0
43631982472503,1.3607825E7,0.0
43631992268649,1.3601357E7,0.0
43632002034274,1.3595896E7,0.0
43632011799899,1.358658E7,0.0
43632021565524,1.3582446E7,0.0
43632031331149,1.3572502E7,0.0
43632041096774,1.3576412E7,0.0
43632050862399,1.3565517E7,0.0
43632060628024,1.3561454E7,0.0
43632070393649,1.3558435E7,0.0
43632080159274,1.3552875E7,0.0
43632089955420,1.3548463E7,0.0
43632099721045,1.35431E7,0.0
43632109486670,1.3535558E7,0.0
43632119252295,1.3532149E7,0.0
43632129048441,1.3533141E7,0.0
43632138814066,1.3527245E7,0.0
43632148579691,1.3519257E7,0.0
43632158375837,1.3526548E7,0.0
43632168141462,1.3517901E7,0.0
43632177907087,1.3513376E7,0.0
43632187703232,1.3510861E7,0.0
43632197468857,1.3510234E7,0.0
43632207234482,1.3504534E7,0.0
43632217000107,1.3508432E7,0.0
43632226765732,1.3503209E7,0.0
43632236561878,1.3500483E7,0.0
43632246327503,1.3494031E7,0.0
43632256093128,1.3489784E7,0.0
43632265858753,1.3487942E7,0.0
43632275624378,1.3482508E7,0.0
43632285420524,1.3480161E7,0.0
43632295186149,1.3477955E7,0.0
43632304951774,1.3471013E7,0.0
43632314717399,1.3468513E7,0.0
43632324513545,1.346062E7,0.0
43632334279170,1.3462156E7,0.0
43632344044795,1.3465384E7,0.0
43632353840941,1.3465913E7,0.0
43632363606566,1.3457129E7,0.0
43632373372191,1.3459014E7,0.0
43632383168337,1.3453525E7,0.0
43632392933962,1.3453678E7,0.0
43632402699587,1.3457269E7,0.0
43632412465212,1.3448804E7,0.0
43632422261357,1.3445662E7,0.0
43632432026982,1.3445368E7,0.0
43632441792607,1.3445438E7,0.0
43632451588753,1.3445187E7,0.0
43632461354378,1.3442364E7,0.0
43632471120003,1.3443343E7,0.0
43632480916149,1.3438802E7,0.0
43632490681774,1.3436902E7,0.0
43632500447399,1.3436749E7,0.0
43632510213024,1.3432769E7,0.0
43632520009170,1.3430645E7,0.0
43632529774795,1.3432714E7,0.0
43632539540420,1.3434724E7,0.0
43632549336566,1.3427978E7,0.0
43632559102191,1.3424542E7,0.0
43632568867816,1.342348E7,0.0
43632578663909,1.3425827E7,0.0
43632588429534,1.3421972E7,0.0
43632598195159,1.3427503E7,0.0
43632607960784,1.3427127E7,0.0
43632617756930,1.3419765E7,0.0
43632627522555,1.3424012E7,0.0
43632637288180,1.3421763E7,0.0
43632647084326,1.3417474E7,0.0
43632656849951,1.3426916E7,0.0
43632666615576,1.3422629E7,0.0
43632676411722,1.3417195E7,0.0
43632686177347,1.3411594E7,0.0
43632695942972,1.3416091E7,0.0
43632705708597,1.3417755E7,0.0
43632715474222,1.3418551E7,0.0
43632725239847,1.3415574E7,0.0
43632735005472,1.3413062E7,0.0
43632744771097,1.3405043E7,0.0
43632754536722,1.3394763E7,0.0
43632764302347,1.3392459E7,0.0
43632773374795,1.3386955E7,0.0
43632783109899,1.3376117E7,0.0
43632792875524,1.3372458E7,0.0
43632802641149,1.3362037E7,0.0
43632812406774,1.3351213E7,0.0
43632822172399,1.3338962E7,0.0
43632831938024,1.3334801E7,0.0
43632841703649,1.3327648E7,0.0
43632851469274,1.3324493E7,0.0
43632861234899,1.3311154E7,0.0
43632871000524,1.3302327E7,0.0
43632880766149,1.3298821E7,0.0
43632890531774,1.3294714E7,0.0
43632900297399,1.3287757E7,0.0
43632910063024,1.3275397E7,0.0
43632919828649,1.3272031E7,0.0
43632929594274,1.3270229E7,0.0
43632939359899,1.3264278E7,0.0
43632949125524,1.3260897E7,0.0
43632958891149,1.3256302E7,0.0
43632968687295,1.325506E7,0.0
43632978452920,1.3247432E7,0.0
43632988218545,1.3241231E7,0.0
43632997984170,1.3235812E7,0.0
43633007749795,1.3241484E7,0.0
43633017515420,1.3230002E7,0.0
43633027281045,1.322577E7,0.0
43633037046670,1.3229359E7,0.0
43633046812295,1.3216858E7,0.0
43633056577920,1.3216843E7,0.0
43633066343545,1.3210237E7,0.0
43633076109170,1.3207401E7,0.0
43633085874795,1.3208744E7,0.0
43633095640420,1.3194817E7,0.0
43633105406045,1.31943E7,0.0
43633115171670,1.3187428E7,0.0
43633124937295,1.3184286E7,0.0
43633134702920,1.3178907E7,0.0
43633144468545,1.3179858E7,0.0
43633154234170,1.3181171E7,0.0
43633163999795,1.3171604E7,0.0
43633173765420,1.3162942E7,0.0
43633183531045,1.3163502E7,0.0
43633193327191,1.3161574E7,0.0
43633203092816,1.3158766E7,0.0
43633212888962,1.3159353E7,0.0
43633222654587,1.3154519E7,0.0
43633232420212,1.3149758E7,0.0
43633242216357,1.3146488E7,0.0
43633251981982,1.3143275E7,0.0
43633261778128,1.3135859E7,0.0
43633271543753,1.312977E7,0.0
43633281309378,1.3131013E7,0.0
43633291075003,1.3132032E7,0.0
43633300840628,1.3127604E7,0.0
43633310636774,1.3131991E7,0.0
43633320402399,1.3129015E7,0.0
43633330168024,1.3130942E7,0.0
43633339933649,1.3123905E7,0.0
43633349699274,1.3122103E7,0.0
43633359495420,1.3122926E7,0.0
43633369261045,1.3121237E7,0.0
43633379026670,1.3121277E7,0.0
43633388792295,1.3121781E7,0.0
43633398557920,1.3115439E7,0.0
43633408354066,1.3112018E7,0.0
43633418119691,1.3115243E7,0.0
43633427885316,1.3114322E7,0.0
43633437650941,1.3109935E7,0.0
43633447416566,1.3111905E7,0.0
43633457212712,1.3106765E7,0.0
43633466978337,1.3108708E7,0.0
43633476743962,1.3108427E7,0.0
43633486509587,1.3106918E7,0.0
43633496275212,1.3107169E7,0.0
43633506040837,1.3101025E7,0.0
43633515806462,1.3104936E7,0.0
43633525572087,1.3096262E7,0.0
43633535337712,1.309263E7,0.0
43633545103337,1.3089305E7,0.0
43633554899482,1.3083494E7,0.0
43633564634587,1.3073872E7,0.0
43633574400212,1.3063117E7,0.0
43633584165837,1.3059458E7,0.0
43633593931462,1.304919E7,0.0
43633603697087,1.3036117E7,0.0
43633613432191,1.3029511E7,0.0
43633623197816,1.3020011E7,0.0
43633632963441,1.3010276E7,0.0
43633642729066,1.3000736E7,0.0
43633652494691,1.2992496E7,0.0
43633662260316,1.2983697E7,0.0
43633672025941,1.297748E7,0.0
43633681822087,1.2967802E7,0.0
43633691587712,1.2964743E7,0.0
43633701383857,1.2956222E7,0.0
43633711149482,1.2951306E7,0.0
43633720915107,1.2946725E7,0.0
43633730711253,1.2941696E7,0.0
43633740476878,1.2938051E7,0.0
43633750103232,1.2927631E7,0.0
43633759868857,1.2925914E7,0.0
43633769634482,1.2920312E7,0.0
43633779400107,1.2917742E7,0.0
43633789165732,1.2915019E7,0.0
43633798931357,1.2906317E7,0.0
43633808696982,1.2905421E7,0.0
43633818462607,1.2899669E7,0.0
43633828228232,1.2895979E7,0.0
43633837993857,1.2886721E7,0.0
43633847789951,1.2885644E7,0.0
43633857555576,1.288211E7,0.0
43633867321201,1.2881064E7,0.0
43633877086826,1.2870628E7,0.0
43633886852451,1.2869064E7,0.0
43633896618076,1.2862486E7,0.0
43633906383701,1.2861675E7,0.0
43633916149326,1.2853672E7,0.0
43633925914951,1.2856954E7,0.0
43633935680576,1.2850098E7,0.0
43633945446201,1.2845628E7,0.0
43633955211826,1.2838937E7,0.0
43633964977451,1.2836254E7,0.0
43633974773597,1.2836743E7,0.0
43633984539222,1.2825205E7,0.0
43633994335368,1.2823978E7,0.0
43634004100993,1.2823978E7,0.0
43634013866618,1.2815849E7,0.0
43634023662764,1.2818808E7,0.0
43634033428389,1.2816559E7,0.0
43634043224534,1.2810415E7,0.0
43634052990159,1.2813083E7,0.0
43634062755784,1.28079E7,0.0
43634072521409,1.2808543E7,0.0
43634082287034,1.2807496E7,0.0
43634092083180,1.2805358E7,0.0
43634101848805,1.279892E7,0.0
43634111614430,1.2793472E7,0.0
43634121380055,1.2795231E7,0.0
43634131145680,1.2794227E7,0.0
43634140941826,1.2790917E7,0.0
43634150707451,1.2788374E7,0.0
43634160473076,1.2790525E7,0.0
43634170238701,1.2785385E7,0.0
43634180004326,1.2788974E7,0.0
43634189769951,1.2789757E7,0.0
43634199535576,1.2780621E7,0.0
43634209301201,1.2780523E7,0.0
43634219066826,1.2785259E7,0.0
43634228832451,1.2778458E7,0.0
43634238598076,1.2777549E7,0.0
43634248363701,1.2778526E7,0.0
43634258129326,1.2777451E7,0.0
43634267894951,1.2776335E7,0.0
43634277660576,1.2777424E7,0.0
43634287426201,1.2778736E7,0.0
43634297191826,1.2768707E7,0.0
43634306957451,1.2767352E7,0.0
43634316723076,1.2761765E7,0.0
43634326488701,1.27578E7,0.0
43634336284847,1.2741514E7,0.0
43634346050472,1.2738984E7,0.0
43634355816097,1.2727446E7,0.0
43634365581722,1.27132E7,0.0
43634375347347,1.2703382E7,0.0
43634385112972,1.2690336E7,0.0
43634394878597,1.2683881E7,0.0
43634404644222,1.2672025E7,0.0
43634414409847,1.2663587E7,0.0
43634424175472,1.2654019E7,0.0
43634433941097,1.2650877E7,0.0
43634443676201,1.2641686E7,0.0
43634453441826,1.2629396E7,0.0
43634463207451,1.2619504E7,0.0
43634472973076,1.2612884E7,0.0
43634482738701,1.2607578E7,0.0
43634492504326,1.2603778E7,0.0
43634502269951,1.2595257E7,0.0
43634512035576,1.2589741E7,0.0
43634521801201,1.2584181E7,0.0
43634531566826,1.2573874E7,0.0
43634541332451,1.2566234E7,0.0
43634551098076,1.2569502E7,0.0
43634560863701,1.2557936E7,0.0
43634570629326,1.2559124E7,0.0
43634580394951,1.2551958E7,0.0
43634590160576,1.2549235E7,0.0
43634599926201,1.253975E7,0.0
43634609691826,1.2535393E7,0.0
43634619457451,1.2529443E7,0.0
43634629223076,1.2528326E7,0.0
43634638988701,1.2524596E7,0.0
43634648754326,1.2517569E7,0.0
43634658519951,1.2513937E7,0.0
43634668285576,1.2512416E7,0.0
43634678051201,1.2503085E7,0.0
43634687816826,1.2499092E7,0.0
43634697582451,1.2493839E7,0.0
43634707348076,1.2491437E7,0.0
43634717113701,1.2483112E7,0.0
43634726909847,1.2486394E7,0.0
43634736675472,1.2476282E7,0.0
43634746441097,1.247385E7,0.0
43634756206722,1.2467064E7,0.0
43634765972347,1.2466462E7,0.0
43634775768493,1.2462858E7,0.0
43634785534118,1.2458586E7,0.0
43634795299743,1.2461741E7,0.0
43634805065368,1.2458347E7,0.0
43634814830993,1.245582E7,0.0
43634823940316,1.2450805E7,0.0
43634833705941,1.2448248E7,0.0
43634843471566,1.2445442E7,0.0
43634853237191,1.2444784E7,0.0
43634863002816,1.2442214E7,0.0
43634872768441,1.2443974E7,0.0
43634882534066,1.2440972E7,0.0
43634892299691,1.2435566E7,0.0
43634902065316,1.2431766E7,0.0
43634911830941,1.2432745E7,0.0
43634921627087,1.2430622E7,0.0
43634931392712,1.243139E7,0.0
43634941158337,1.2434073E7,0.0
43634950923962,1.242625E7,0.0
43634960689587,1.2422799E7,0.0
43634970485732,1.2425622E7,0.0
43634980251357,1.2419322E7,0.0
43634990016982,1.2422003E7,0.0
43634999782607,1.2425271E7,0.0
43635009548232,1.2418037E7,0.0
43635019344378,1.2416361E7,0.0
43635029110003,1.2414112E7,0.0
43635038875628,1.2418497E7,0.0
43635048641253,1.2414446E7,0.0
43635058406878,1.241414E7,0.0
43635068172503,1.2412812E7,0.0
43635077938128,1.2411053E7,0.0
43635087703753,1.2412393E7,0.0
43635097469378,1.241284E7,0.0
43635107235003,1.2408259E7,0.0
43635117031149,1.240914E7,0.0
43635126796774,1.241224E7,0.0
43635136562399,1.2413008E7,0.0
43635146328024,1.2401807E7,0.0
43635156093649,1.239812E7,0.0
43635165859274,1.2393497E7,0.0
43635175624899,1.2385869E7,0.0
43635185390524,1.238228E7,0.0
43635195156149,1.2371385E7,0.0
43635204921774,1.2356816E7,0.0
43635214717920,1.2343393E7,0.0
43635224483545,1.2331326E7,0.0
43635234249170,1.2319816E7,0.0
43635244014795,1.2309872E7,0.0
43635253780420,1.2298362E7,0.0
43635263576566,1.2287342E7,0.0
43635273342191,1.227906E7,0.0
43635283107816,1.2272843E7,0.0
43635292873441,1.2263612E7,0.0
43635302639066,1.2254308E7,0.0
43635312435159,1.2244823E7,0.0
43635322200784,1.2234864E7,0.0
43635331966409,1.2228274E7,0.0
43635341732034,1.2221485E7,0.0
43635351497659,1.2212462E7,0.0
43635361263284,1.2205143E7,0.0
43635371028909,1.2201328E7,0.0
43635380794534,1.2189374E7,0.0
43635390560159,1.2183953E7,0.0
43635400325784,1.2185743E7,0.0
43635410121930,1.2173743E7,0.0
43635419887555,1.2176677E7,0.0
43635429653180,1.2174888E7,0.0
43635439418805,1.2159176E7,0.0
43635449184430,1.2157429E7,0.0
43635458980576,1.2149594E7,0.0
43635468746201,1.2146954E7,0.0
43635478511826,1.2146256E7,0.0
43635488277451,1.2140865E7,0.0
43635498043076,1.2133406E7,0.0
43635507839222,1.2126895E7,0.0
43635517604847,1.2119381E7,0.0
43635527370472,1.2117132E7,0.0
43635537136097,1.2113849E7,0.0
43635546901722,1.2107369E7,0.0
43635556697868,1.2107314E7,0.0
43635566463493,1.2098459E7,0.0
43635576229118,1.2095021E7,0.0
43635585994743,1.2092619E7,0.0
43635595760368,1.2084281E7,0.0
43635605556514,1.208403E7,0.0
43635615322139,1.2087311E7,0.0
43635625087764,1.208389E7,0.0
43635634853389,1.2080371E7,0.0
43635644619014,1.208259E7,0.0
43635654415159,1.2075063E7,0.0
43635664180784,1.2075831E7,0.0
43635673946409,1.2072367E7,0.0
43635683712034,1.2070314E7,0.0
43635693477659,1.2070773E7,0.0
43635703273805,1.2068454E7,0.0
43635713039430,1.2070942E7,0.0
43635722805055,1.2067227E7,0.0
43635732570680,1.206854E7,0.0
43635742366826,1.20672E7,0.0
43635752132451,1.2063176E7,0.0
43635761898076,1.2065006E7,0.0
43635771694222,1.2070691E7,0.0
43635781459847,1.206041E7,0.0
43635791225472,1.2066429E7,0.0
43635801060837,1.2065257E7,0.0
43635810826462,1.2066808E7,0.0
43635820592087,1.2063568E7,0.0
43635830357712,1.2064085E7,0.0
43635840123337,1.2060998E7,0.0
43635849919482,1.2061053E7,0.0
43635859685107,1.2062436E7,0.0
43635869450732,1.2058455E7,0.0
43635879216357,1.2056751E7,0.0
43635888981982,1.2065942E7,0.0
43635898778128,1.2061289E7,0.0
43635908543753,1.2063623E7,0.0
43635918309378,1.2063917E7,0.0
43635928075003,1.2064308E7,0.0
43635937871149,1.2063412E7,0.0
43635947636774,1.2067169E7,0.0
43635957402399,1.2067659E7,0.0
43635967198545,1.2071444E7,0.0
43635976964170,1.2068748E7,0.0
43635986729795,1.2067114E7,0.0
43635996525941,1.2072058E7,0.0
43636006291566,1.2070369E7,0.0
43636016057191,1.2073429E7,0.0
43636025822816,1.2081626E7,0.0
43636035588441,1.2079001E7,0.0
43636045354066,1.2077869E7,0.0
43636055119691,1.2085258E7,0.0
43636064885316,1.208083E7,0.0
43636074650941,1.2084336E7,0.0
43636084416566,1.2087828E7,0.0
43636094212659,1.2090147E7,0.0
43636103947816,1.2090398E7,0.0
43636113713441,1.2092802E7,0.0
43636123479066,1.2091866E7,0.0
43636133244691,1.2098389E7,0.0
43636143010316,1.2096474E7,0.0
43636152775941,1.210058E7,0.0
43636162541566,1.210899E7,0.0
43636172307191,1.2109382E7,0.0
43636182072816,1.2114828E7,0.0
43636191838441,1.2114522E7,0.0
43636201573545,1.2117845E7,0.0
43636211339170,1.2123781E7,0.0
43636221104795,1.212487E7,0.0
43636230870420,1.2123474E7,0.0
43636240636045,1.2126338E7,0.0
43636250401670,1.2125904E7,0.0
43636260167295,1.2126981E7,0.0
43636269932920,1.2127929E7,0.0
43636279698545,1.2126268E7,0.0
43636289464170,1.2120834E7,0.0
43636299229795,1.2119451E7,0.0
43636308995420,1.2109813E7,0.0
43636318761045,1.2103725E7,0.0
43636328557191,1.2098765E7,0.0
43636338322816,1.2096614E7,0.0
43636348088441,1.2092689E7,0.0
43636357884534,1.208266E7,0.0
43636367650159,1.208065E7,0.0
43636377415784,1.2071808E7,0.0
43636387211930,1.2067686E7,0.0
43636396977555,1.2066206E7,0.0
43636406743180,1.2060842E7,0.0
43636416508805,1.2067365E7,0.0
43636426274430,1.20514E7,0.0
43636436040055,1.2053092E7,0.0
43636445805680,1.2048803E7,0.0
43636455571305,1.2046541E7,0.0
43636465336930,1.2045018E7,0.0
43636475102555,1.2044235E7,0.0
43636484868180,1.2035212E7,0.0
43636494633805,1.2041946E7,0.0
43636504429951,1.2041233E7,0.0
43636514195576,1.2036763E7,0.0
43636523991722,1.204224E7,0.0
43636533757347,1.2041805E7,0.0
43636543553493,1.2036778E7,0.0
43636553319118,1.2037069E7,0.0
43636563115264,1.2036916E7,0.0
43636572880889,1.2039486E7,0.0
43636582677034,1.204175E7,0.0
43636592442659,1.2039376E7,0.0
43636602208284,1.2038467E7,0.0
43636611973909,1.2039416E7,0.0
43636621739534,1.2038593E7,0.0
43636631505159,1.2042365E7,0.0
43636641270784,1.2040759E7,0.0
43636651036409,1.2039165E7,0.0
43636660802034,1.2039012E7,0.0
43636670567659,1.2043776E7,0.0
43636680363805,1.204175E7,0.0
43636690129430,1.2042882E7,0.0
43636699895055,1.204566E7,0.0
43636709660680,1.2046848E7,0.0
43636719456826,1.2046863E7,0.0
43636729222451,1.2046667E7,0.0
43636738988076,1.2049794E7,0.0
43636748784222,1.2052547E7,0.0
43636758549847,1.2054349E7,0.0
43636768315472,1.2060019E7,0.0
43636778350159,1.2059572E7,0.0
43636788085264,1.2061708E7,0.0
43636797850889,1.206217E7,0.0
43636807616514,1.2063693E7,0.0
43636817382139,1.2070189E7,0.0
43636827147764,1.2072884E7,0.0
43636836913389,1.2069335E7,0.0
43636846679014,1.2074197E7,0.0
43636856444639,1.2075133E7,0.0
43636866210264,1.2080634E7,0.0
43636875975889,1.2076571E7,0.0
43636885741514,1.2086573E7,0.0
43636895507139,1.2087983E7,0.0
43636905303284,1.209558E7,0.0
43636915068909,1.2094491E7,0.0
43636924865055,1.2098554E7,0.0
43636934630680,1.2096755E7,0.0
43636944396305,1.2102382E7,0.0
43636954192451,1.2103752E7,0.0
43636963958076,1.2111377E7,0.0
43636973754222,1.211093E7,0.0
43636983519847,1.2116741E7,0.0
43636993285472,1.2120849E7,0.0
43637003051097,1.2119674E7,0.0
43637012847243,1.212096E7,0.0
43637022612868,1.2133293E7,0.0
43637032378493,1.2129312E7,0.0
43637042174639,1.2133657E7,0.0
43637051940264,1.2134048E7,0.0
43637061705889,1.2143839E7,0.0
43637071501982,1.2146534E7,0.0
43637081267607,1.2149817E7,0.0
43637091033232,1.2151647E7,0.0
43637100798857,1.2155585E7,0.0
43637110564482,1.2158115E7,0.0
43637120360628,1.2155976E7,0.0
43637130126253,1.2166327E7,0.0
43637139891878,1.217035E7,0.0
43637149657503,1.2175141E7,0.0
43637159423128,1.2177809E7,0.0
43637169219274,1.2181985E7,0.0
43637178954378,1.2186566E7,0.0
43637188720003,1.2191972E7,0.0
43637198485628,1.2191887E7,0.0
43637208251253,1.2200435E7,0.0
43637218016878,1.2199499E7,0.0
43637227782503,1.2205869E7,0.0
43637237548128,1.2213775E7,0.0
43637247313753,1.2211792E7,0.0
43637257079378,1.2217978E7,0.0
43637266845003,1.2225074E7,0.0
43637276610628,1.223122E7,0.0
43637286376253,1.2232714E7,0.0
43637296141878,1.2240035E7,0.0
43637305938024,1.2241751E7,0.0
43637315703649,1.2243706E7,0.0
43637325469274,1.2242268E7,0.0
43637335265420,1.224643E7,0.0
43637345031045,1.2248623E7,0.0
43637354796670,1.2248066E7,0.0
43637364592816,1.2248862E7,0.0
43637374327920,1.2246264E7,0.0
43637384093545,1.2243385E7,0.0
43637393859170,1.2242366E7,0.0
43637403624795,1.2239041E7,0.0
43637413390420,1.2234292E7,0.0
43637423156045,1.2230899E7,0.0
43637432921670,1.2234084E7,0.0
43637442687295,1.2235048E7,0.0
43637452452920,1.2234029E7,0.0
43637462218545,1.223685E7,0.0
43637471984170,1.2241528E7,0.0
43637481749795,1.2241779E7,0.0
43637491515420,1.2239937E7,0.0
43637501281045,1.2237786E7,0.0
43637511046670,1.2241739E7,0.0
43637520812295,1.2241387E7,0.0
43637530577920,1.2247393E7,0.0
43637540343545,1.2244392E7,0.0
43637550109170,1.2250061E7,0.0
43637559874795,1.224601E7,0.0
43637569609899,1.2248164E7,0.0
43637579375524,1.2252451E7,0.0
43637589141149,1.2254895E7,0.0
43637598906774,1.2256321E7,0.0
43637608672399,1.2257031E7,0.0
43637618438024,1.225748E7,0.0
43637628203649,1.2255314E7,0.0
43637637969274,1.225984E7,0.0
43637647734899,1.2261363E7,0.0
43637657500524,1.226519E7,0.0
43637667266149,1.2264924E7,0.0
43637677031774,1.226322E7,0.0
43637686797399,1.2266475E7,0.0
43637696593545,1.2267256E7,0.0
43637706359170,1.227079E7,0.0
43637716124795,1.2272885E7,0.0
43637725920941,1.227776E7,0.0
43637735686566,1.2279087E7,0.0
43637745452191,1.2277787E7,0.0
43637755248337,1.2280415E7,0.0
43637764983441,1.2282229E7,0.0
43637774749066,1.2289242E7,0.0
43637784514691,1.2289227E7,0.0
43637794280316,1.2289744E7,0.0
43637804045941,1.2290848E7,0.0
43637813781045,1.2297482E7,0.0
43637823546670,1.2304996E7,0.0
43637833312295,1.2298824E7,0.0
43637843077920,1.2307875E7,0.0
43637852764378,1.2310904E7,0.0
43637862530003,1.2310598E7,0.0
43637872326149,1.2310136E7,0.0
43637882091774,1.2317008E7,0.0
43637891887920,1.2320599E7,0.0
43637901653545,1.2321744E7,0.0
43637911449691,1.2324718E7,0.0
43637921215316,1.2330277E7,0.0
43637931011462,1.2332024E7,0.0
43637940777087,1.2335769E7,0.0
43637950573232,1.2340364E7,0.0
43637960338857,1.2342319E7,0.0
43637970104482,1.2353729E7,0.0
43637979870107,1.2344259E7,0.0
43637989635732,1.2350418E7,0.0
43637999401357,1.2349736E7,0.0
43638009166982,1.235345E7,0.0
43638018932607,1.2363843E7,0.0
43638028698232,1.2361007E7,0.0
43638038463857,1.2369653E7,0.0
43638048260003,1.2370211E7,0.0
43638058025628,1.2372153E7,0.0
43638067791253,1.2375659E7,0.0
43638077556878,1.238221E7,0.0
43638087322503,1.2379906E7,0.0
43638097118649,1.2385786E7,0.0
43638106884274,1.2383412E7,0.0
43638116649899,1.238978E7,0.0
43638126415524,1.2394907E7,0.0
43638136181149,1.239513E7,0.0
43638145977295,1.2400534E7,0.0
43638155742920,1.2408244E7,0.0
43638165508545,1.2410621E7,0.0
43638175274170,1.2408119E7,0.0
43638185039795,1.2416835E7,0.0
43638194805420,1.2414336E7,0.0
43638204571045,1.2424545E7,0.0
43638214336670,1.2423903E7,0.0
43638224102295,1.2428388E7,0.0
43638233867920,1.2434238E7,0.0
43638243664066,1.2439127E7,0.0
43638253429691,1.2442089E7,0.0
43638263195316,1.2442551E7,0.0
43638272960941,1.2445861E7,0.0
43638282726566,1.2452886E7,0.0
43638292522712,1.2453165E7,0.0
43638302288337,1.2460554E7,0.0
43638312053962,1.2463334E7,0.0
43638321819587,1.2470528E7,0.0
43638331585212,1.247054E7,0.0
43638341381357,1.247117E7,0.0
43638351146982,1.2472146E7,0.0
43638360912607,1.2478085E7,0.0
43638370678232,1.2470261E7,0.0
43638380443857,1.2473893E7,0.0
43638390209482,1.2475444E7,0.0
43638399975107,1.24717E7,0.0
43638409740732,1.2475331E7,0.0
43638419506357,1.2472608E7,0.0
43638429271982,1.2475123E7,0.0
43638439068128,1.2474634E7,0.0
43638448833753,1.2473712E7,0.0
43638458599378,1.2475625E7,0.0
43638468365003,1.2472902E7,0.0
43638478130628,1.2474089E7,0.0
43638487926722,1.2478406E7,0.0
43638497692347,1.2483292E7,0.0
43638507457972,1.2488573E7,0.0
43638517223597,1.2482971E7,0.0
43638526989222,1.2484608E7,0.0
43638536785368,1.2490711E7,0.0
43638546550993,1.2492064E7,0.0
43638556316618,1.2493713E7,0.0
43638566082243,1.2495683E7,0.0
43638575847868,1.2501325E7,0.0
43638585613493,1.2500193E7,0.0
43638595379118,1.250127E7,0.0
43638605144743,1.2502919E7,0.0
43638614910368,1.2511257E7,0.0
43638624675993,1.2510586E7,0.0
43638634472139,1.2518324E7,0.0
43638644237764,1.2516997E7,0.0
43638654003389,1.2521258E7,0.0
43638663769014,1.2525028E7,0.0
43638673534639,1.2523939E7,0.0
43638683300264,1.2526019E7,0.0
43638693065889,1.2524428E7,0.0
43638702831514,1.2528715E7,0.0
43638712597139,1.2532921E7,0.0
43638722362764,1.2532459E7,0.0
43638732158909,1.2541176E7,0.0
43638741924534,1.2537655E7,0.0
43638751690159,1.2537893E7,0.0
43638761455784,1.2542042E7,0.0
43638771221409,1.2540506E7,0.0
43638780987034,1.2549611E7,0.0
43638790752659,1.2554164E7,0.0
43638800518284,1.2558551E7,0.0
43638810283909,1.2557698E7,0.0
43638820049534,1.2564542E7,0.0
43638830115316,1.2567393E7,0.0
43638839850420,1.2565368E7,0.0
43638849616045,1.2573663E7,0.0
43638859381670,1.2579363E7,0.0
43638869147295,1.2582548E7,0.0
43638878912920,1.2583539E7,0.0
43638888648024,1.2588177E7,0.0
43638898413649,1.2591892E7,0.0
43638908179274,1.2593372E7,0.0
43638917944899,1.2597521E7,0.0
43638927710524,1.2606893E7,0.0
43638937476149,1.2610999E7,0.0
43638947241774,1.2610999E7,0.0
43638957007399,1.2614324E7,0.0
43638966803545,1.2622243E7,0.0
43638976569170,1.2628738E7,0.0
43638986334795,1.2635402E7,0.0
43638996130941,1.2633221E7,0.0
43639005896566,1.2634814E7,0.0
43639015662191,1.2642105E7,0.0
43639025458337,1.2645933E7,0.0
43639035223962,1.2644005E7,0.0
43639044989587,1.2651434E7,0.0
43639054755212,1.2654509E7,0.0
43639064520837,1.2657372E7,0.0
43639074286462,1.2660249E7,0.0
43639084052087,1.2664957E7,0.0
43639093817712,1.2666646E7,0.0
43639103583337,1.2668378E7,0.0
43639113348962,1.2669886E7,0.0
43639123145107,1.267085E7,0.0
43639132880212,1.2676464E7,0.0
43639142645837,1.2683715E7,0.0
43639152411462,1.2689847E7,0.0
43639162177087,1.2692234E7,0.0
43639171942712,1.2693157E7,0.0
43639181708337,1.2701803E7,0.0
43639191473962,1.2704539E7,0.0
43639201239587,1.2708452E7,0.0
43639211005212,1.2711509E7,0.0
43639220770837,1.2718102E7,0.0
43639230505941,1.2719696E7,0.0
43639240271566,1.2722419E7,0.0
43639250037191,1.2731191E7,0.0
43639259802816,1.2729906E7,0.0
43639269568441,1.2738537E7,0.0
43639279334066,1.2740326E7,0.0
43639289099691,1.2740675E7,0.0
43639298865316,1.2746219E7,0.0
43639308630941,1.2746219E7,0.0
43639318396566,1.2754921E7,0.0
43639328131670,1.2757323E7,0.0
43639337897295,1.2762395E7,0.0
43639347662920,1.2763218E7,0.0
43639357428545,1.2771905E7,0.0
43639367194170,1.2767603E7,0.0
43639376959795,1.2775273E7,0.0
43639386725420,1.2783023E7,0.0
43639396491045,1.2786027E7,0.0
43639406256670,1.2784406E7,0.0
43639416022295,1.2789436E7,0.0
43639425787920,1.2788151E7,0.0
43639435553545,1.2790231E7,0.0
43639445319170,1.2787578E7,0.0
43639455115316,1.2783959E7,0.0
43639464880941,1.2791152E7,0.0
43639474646566,1.2789938E7,0.0
43639484442712,1.2792048E7,0.0
43639494208337,1.2794842E7,0.0
43639503973962,1.2791865E7,0.0
43639513770107,1.278991E7,0.0
43639523535732,1.2794297E7,0.0
43639533301357,1.2790525E7,0.0
43639543066982,1.2793682E7,0.0
43639552832607,1.2794995E7,0.0
43639562598232,1.2801726E7,0.0
43639572363857,1.2799156E7,0.0
43639582129482,1.2795776E7,0.0
43639591895107,1.2801475E7,0.0
43639601660732,1.2801781E7,0.0
43639611426357,1.2803709E7,0.0
43639621191982,1.2807007E7,0.0
43639630957607,1.280519E7,0.0
43639640723232,1.2801071E7,0.0
43639650488857,1.2806211E7,0.0
43639660254482,1.2817566E7,0.0
43639670020107,1.2813291E7,0.0
43639679785732,1.2821965E7,0.0
43639689551357,1.2815917E7,0.0
43639699316982,1.281945E7,0.0
43639709082607,1.2821142E7,0.0
43639718817712,1.2821044E7,0.0
43639728583337,1.2823572E7,0.0
43639738348962,1.2822804E7,0.0
43639748114587,1.2830165E7,0.0
43639757880212,1.2832637E7,0.0
43639767645837,1.2835066E7,0.0
43639777411462,1.2832818E7,0.0
43639787177087,1.2835528E7,0.0
43639796942712,1.2842149E7,0.0
43639806708337,1.2840207E7,0.0
43639816443441,1.2839215E7,0.0
43639826209066,1.2845808E7,0.0
43639835974691,1.2841996E7,0.0
43639845740316,1.2847834E7,0.0
43639855505941,1.2843881E7,0.0
43639865271566,1.2847498E7,0.0
43639875037191,1.2847332E7,0.0
43639884802816,1.2847834E7,0.0
43639894568441,1.28544E7,0.0
43639906263909,1.2846745E7,0.0
43639916029534,1.2854231E7,0.0
43639925795159,1.2862514E7,0.0
43639935560784,1.2854789E7,0.0
43639945326409,1.2864762E7,0.0
43639955092034,1.2867026E7,0.0
43639964857659,1.2871552E7,0.0
43639974623284,1.2871007E7,0.0
43639984388909,1.2871481E7,0.0
43639994154534,1.2872458E7,0.0
43640003920159,1.2873005E7,0.0
43640013655264,1.2873647E7,0.0
43640023420889,1.2875028E7,0.0
43640033186514,1.28845E7,0.0
43640042952139,1.288278E7,0.0
43640052717764,1.2889472E7,0.0
43640062483389,1.2890031E7,0.0
43640072249014,1.2888535E7,0.0
43640082014639,1.2889765E7,0.0
43640091780264,1.2892641E7,0.0
43640101545889,1.2895533E7,0.0
43640111311514,1.2899109E7,0.0
43640121077139,1.2903858E7,0.0
43640130842764,1.2900339E7,0.0
43640140608389,1.290443E7,0.0
43640150374014,1.2904262E7,0.0
43640160139639,1.2903802E7,0.0
43640169905264,1.2909068E7,0.0
43640179670889,1.2910102E7,0.0
43640189436514,1.2913899E7,0.0
43640199202139,1.2919991E7,0.0
43640208967764,1.2915172E7,0.0
43640218733389,1.2917754E7,0.0
43640228499014,1.291728E7,0.0
43640238264639,1.2924697E7,0.0
43640248030264,1.2923314E7,0.0
43640257795889,1.292115E7,0.0
43640267561514,1.2927686E7,0.0
43640277327139,1.2930032E7,0.0
43640287092764,1.2936947E7,0.0
43640296858389,1.2933343E7,0.0
43640306624014,1.2941249E7,0.0
43640316389639,1.2942017E7,0.0
43640326155264,1.2939853E7,0.0
43640335920889,1.2942353E7,0.0
43640345686514,1.2944363E7,0.0
43640355452139,1.2949237E7,0.0
43640365217764,1.2948625E7,0.0
43640374983389,1.2953401E7,0.0
43640384749014,1.2953918E7,0.0
43640394545159,1.2961209E7,0.0
43640404310784,1.2956907E7,0.0
43640414076409,1.2957648E7,0.0
43640423842034,1.2964464E7,0.0
43640433607659,1.2963568E7,0.0
43640443373284,1.2961894E7,0.0
43640453138909,1.2964226E7,0.0
43640462904534,1.2966196E7,0.0
43640472670159,1.2970009E7,0.0
43640482435784,1.296787E7,0.0
43640492201409,1.2969574E7,0.0
43640501967034,1.2965888E7,0.0
43640511732659,1.296646E7,0.0
43640521498284,1.2965358E7,0.0
43640531263909,1.2965343E7,0.0
43640541029534,1.2968794E7,0.0
43640550795159,1.2964813E7,0.0
43640560560784,1.2959505E7,0.0
43640570326409,1.2960258E7,0.0
43640580092034,1.2956544E7,0.0
43640589888180,1.2952591E7,0.0
43640599653805,1.2956112E7,0.0
43640609419430,1.2956335E7,0.0
43640619185055,1.2958122E7,0.0
43640628950680,1.2956418E7,0.0
43640638716305,1.2957718E7,0.0
43640648481930,1.2950999E7,0.0
43640658247555,1.295949E7,0.0
43640668013180,1.2962158E7,0.0
43640677778805,1.2958875E7,0.0
43640687544430,1.2964296E7,0.0
43640697310055,1.2962409E7,0.0
43640707075680,1.2959756E7,0.0
43640716841305,1.2960218E7,0.0
43640726637451,1.2965594E7,0.0
43640736403076,1.2964198E7,0.0
43640746168701,1.2962969E7,0.0
43640755964847,1.2966922E7,0.0
43640765730472,1.2966992E7,0.0
43640775496097,1.2963333E7,0.0
43640785292243,1.2965621E7,0.0
43640795057868,1.2964979E7,0.0
43640804823493,1.2966615E7,0.0
43640814589118,1.2965135E7,0.0
43640824354743,1.2963066E7,0.0
43640834120368,1.296857E7,0.0
43640843885993,1.2970917E7,0.0
43640853651618,1.2969323E7,0.0
43640863417243,1.2963834E7,0.0
43640873182868,1.2967368E7,0.0
43640882979014,1.2969534E7,0.0
43640892744639,1.2970302E7,0.0
43640902510264,1.2967243E7,0.0
43640912275889,1.2968192E7,0.0
43640922041514,1.2975134E7,0.0
43640931837659,1.2971113E7,0.0
43640941603284,1.2971489E7,0.0
43640951368909,1.2971658E7,0.0
43640961134534,1.2972857E7,0.0
43640970900159,1.2970526E7,0.0
43640980032555,1.2974589E7,0.0
43640989798180,1.2977285E7,0.0
43640999563805,1.2976419E7,0.0
43641009329430,1.2974087E7,0.0
43641019095055,1.2980331E7,0.0
43641028860680,1.2976923E7,0.0
43641038626305,1.2982691E7,0.0
43641048391930,1.2982593E7,0.0
43641058157555,1.2980191E7,0.0
43641067923180,1.2981657E7,0.0
43641077688805,1.2983097E7,0.0
43641087423909,1.2985833E7,0.0
43641097189534,1.2987427E7,0.0
43641106955159,1.2990863E7,0.0
43641116720784,1.2983165E7,0.0
43641126486409,1.2987176E7,0.0
43641136252034,1.2989171E7,0.0
43641146017659,1.2986824E7,0.0
43641155783284,1.2993503E7,0.0
43641165548909,1.2986922E7,0.0
43641175314534,1.2988222E7,0.0
43641185080159,1.2997245E7,0.0
43641194845784,1.2995109E7,0.0
43641204641930,1.2993124E7,0.0
43641214407555,1.2991741E7,0.0
43641224203701,1.3000011E7,0.0
43641233969326,1.3001477E7,0.0
43641243734951,1.3001409E7,0.0
43641253531097,1.2999326E7,0.0
43641263296722,1.2994213E7,0.0
43641273092868,1.2997413E7,0.0
43641282858493,1.2995917E7,0.0
43641292624118,1.3006142E7,0.0
43641302389743,1.3001394E7,0.0
43641312155368,1.3009342E7,0.0
43641321951514,1.3011882E7,0.0
43641331717139,1.3009606E7,0.0
43641341482764,1.301071E7,0.0
43641351248389,1.3015963E7,0.0
43641361014014,1.3016982E7,0.0
43641370810159,1.3017205E7,0.0
43641380575784,1.3018224E7,0.0
43641390341409,1.3017261E7,0.0
43641400107034,1.3019565E7,0.0
43641409872659,1.3016759E7,0.0
43641419668753,1.3017052E7,0.0
43641429434378,1.302159E7,0.0
43641439200003,1.3025977E7,0.0
43641448965628,1.3021018E7,0.0
43641458731253,1.3027066E7,0.0
43641468527399,1.3030558E7,0.0
43641478262503,1.3031383E7,0.0
43641488028128,1.3021492E7,0.0
43641497793753,1.3027317E7,0.0
43641507559378,1.3025335E7,0.0
43641517325003,1.3018867E7,0.0
43641527090628,1.3019118E7,0.0
43641536856253,1.301592E7,0.0
43641546621878,1.3014118E7,0.0
43641556387503,1.3005613E7,0.0
43641566153128,1.3007568E7,0.0
43641575918753,1.3004132E7,0.0
43641585684378,1.2997747E7,0.0
43641595450003,1.3001828E7,0.0
43641605215628,1.299603E7,0.0
43641614981253,1.299265E7,0.0
43641624746878,1.299272E7,0.0
43641634512503,1.2993347E7,0.0
43641644278128,1.2985989E7,0.0
43641654043753,1.2984967E7,0.0
43641663809378,1.299089E7,0.0
43641673575003,1.298765E7,0.0
43641683340628,1.2986937E7,0.0
43641693136774,1.2988782E7,0.0
43641702902399,1.2991169E7,0.0
43641712698545,1.2990694E7,0.0
43641722464170,1.2991631E7,0.0
43641732229795,1.2990428E7,0.0
43641742025941,1.2988614E7,0.0
43641751791566,1.2987999E7,0.0
43641761587712,1.2993377E7,0.0
43641771353337,1.2993699E7,0.0
43641781118962,1.2982914E7,0.0
43641790884587,1.2987984E7,0.0
43641800650212,1.2985444E7,0.0
43641810446357,1.2987371E7,0.0
43641820211982,1.2987929E7,0.0
43641829977607,1.2986729E7,0.0
43641839743232,1.2984382E7,0.0
43641849508857,1.2986699E7,0.0
43641859305003,1.297994E7,0.0
43641869070628,1.298061E7,0.0
43641878836253,1.298434E7,0.0
43641888601878,1.2982608E7,0.0
43641898398024,1.2983795E7,0.0
43641908163649,1.2979019E7,0.0
43641917929274,1.2979701E7,0.0
43641927725420,1.2976E7,0.0
43641937491045,1.2978921E7,0.0
43641947256670,1.2981742E7,0.0
43641955747659,1.2977789E7,0.0
43641965482764,1.2980595E7,0.0
43641975248389,1.2979521E7,0.0
43641985014014,1.298262E7,0.0
43641994779639,1.2977508E7,0.0
43642004545264,1.2979129E7,0.0
43642014310889,1.2977593E7,0.0
43642024076514,1.2976E7,0.0
43642033842139,1.2976993E7,0.0
43642043607764,1.2976253E7,0.0
43642053373389,1.2983865E7,0.0
43642063139014,1.297871E7,0.0
43642072904639,1.298177E7,0.0
43642082700784,1.2979717E7,0.0
43642092466409,1.2981042E7,0.0
43642102262555,1.2981002E7,0.0
43642112028180,1.2978667E7,0.0
43642121793805,1.2982874E7,0.0
43642131589951,1.2979757E7,0.0
43642141355576,1.2982761E7,0.0
43642151151722,1.2981574E7,0.0
43642160917347,1.2982384E7,0.0
43642170682972,1.2977593E7,0.0
43642180448597,1.2982216E7,0.0
43642190244743,1.2980289E7,0.0
43642200010368,1.2984395E7,0.0
43642209775993,1.2977829E7,0.0
43642219572139,1.2974393E7,0.0
43642229337764,1.2976642E7,0.0
43642239103389,1.297688E7,0.0
43642248899534,1.297431E7,0.0
43642258665159,1.2972257E7,0.0
43642268430784,1.297607E7,0.0
43642278196409,1.2975232E7,0.0
43642287962034,1.2974295E7,0.0
43642297758128,1.2974702E7,0.0
43642307523753,1.2974213E7,0.0
43642317289378,1.2975106E7,0.0
43642327055003,1.2976963E7,0.0
43642336820628,1.2977606E7,0.0
43642346616774,1.2979799E7,0.0
43642356382399,1.2980387E7,0.0
43642366148024,1.2979591E7,0.0
43642375913649,1.2983767E7,0.0
43642385679274,1.2969672E7,0.0
43642395444899,1.297283E7,0.0
43642405210524,1.2967228E7,0.0
43642414976149,1.2961671E7,0.0
43642424741774,1.2959407E7,0.0
43642434507399,1.2960931E7,0.0
43642444273024,1.2954671E7,0.0
43642454038649,1.2949406E7,0.0
43642463804274,1.2942074E7,0.0
43642473569899,1.2939196E7,0.0
43642483335524,1.2934028E7,0.0
43642493101149,1.2930816E7,0.0
43642502866774,1.2929307E7,0.0
43642512632399,1.2924571E7,0.0
43642522398024,1.2915604E7,0.0
43642532163649,1.2912323E7,0.0
43642541959795,1.2914836E7,0.0
43642551725420,1.2908006E7,0.0
43642561491045,1.2907936E7,0.0
43642571287191,1.2900492E7,0.0
43642581052816,1.2895171E7,0.0
43642590848962,1.2894556E7,0.0
43642600614587,1.288982E7,0.0
43642610380212,1.2887376E7,0.0
43642620176357,1.2886342E7,0.0
43642629941982,1.2883466E7,0.0
43642639738128,1.2885589E7,0.0
43642649503753,1.2882878E7,0.0
43642659269378,1.2881734E7,0.0
43642669035003,1.2879806E7,0.0
43642678800628,1.287873E7,0.0
43642688596774,1.2875462E7,0.0
43642698362399,1.2873032E7,0.0
43642708128024,1.2870713E7,0.0
43642717893649,1.2863799E7,0.0
43642727659274,1.2860026E7,0.0
43642737455420,1.2862388E7,0.0
43642747190524,1.2860601E7,0.0
43642756956149,1.2859427E7,0.0
43642766721774,1.2853448E7,0.0
43642776487399,1.2851983E7,0.0
43642786253024,1.2849189E7,0.0
43642796018649,1.2842009E7,0.0
43642805784274,1.2843881E7,0.0
43642815549899,1.2842862E7,0.0
43642825315524,1.284039E7,0.0
43642835081149,1.2838141E7,0.0
43642844846774,1.2838979E7,0.0
43642854612399,1.2836926E7,0.0
43642864378024,1.283606E7,0.0
43642874143649,1.2829284E7,0.0
43642883909274,1.2831242E7,0.0
43642893674899,1.2832441E7,0.0
43642903440524,1.2837637E7,0.0
43642913206149,1.2831533E7,0.0
43642922971774,1.2825416E7,0.0
43642932767920,1.2825205E7,0.0
43642942533545,1.2822595E7,0.0
43642952299170,1.2830835E7,0.0
43642962064795,1.2823125E7,0.0
43642971830420,1.2824089E7,0.0
43642981596045,1.2818404E7,0.0
43642991361670,1.2821644E7,0.0
43643001127295,1.2817776E7,0.0
43643010892920,1.28173E7,0.0
43643020658545,1.280966E7,0.0
43643030907243,1.2824982E7,0.0
43643040672868,1.2821421E7,0.0
43643050438493,1.2820919E7,0.0
43643060204118,1.2819395E7,0.0
43643069969743,1.281494E7,0.0
43643079735368,1.2816825E7,0.0
43643089500993,1.2815889E7,0.0
43643099266618,1.2809843E7,0.0
43643109032243,1.2814479E7,0.0
43643118797868,1.281431E7,0.0
43643128594014,1.2814689E7,0.0
43643138359639,1.2816057E7,0.0
43643148125264,1.2816421E7,0.0
43643157890889,1.2812692E7,0.0
43643167656514,1.2813279E7,0.0
43643177422139,1.2812511E7,0.0
43643187187764,1.2819325E7,0.0
43643196953389,1.28173E7,0.0
43643206719014,1.2814325E7,0.0
43643216484639,1.281156E7,0.0
43643226280784,1.2815415E7,0.0
43643236046409,1.2815638E7,0.0
43643245812034,1.280832E7,0.0
43643255577659,1.2808656E7,0.0
43643265343284,1.2798765E7,0.0
43643275108909,1.279491E7,0.0
43643284874534,1.2786991E7,0.0
43643294640159,1.2786768E7,0.0
43643304405784,1.2777311E7,0.0
43643314171409,1.277516E7,0.0
43643323967555,1.2772981E7,0.0
43643333733180,1.2764363E7,0.0
43643343498805,1.2755481E7,0.0
43643353264430,1.2748664E7,0.0
43643363030055,1.274499E7,0.0
43643372795680,1.2740339E7,0.0
43643382561305,1.2738886E7,0.0
43643392326930,1.2722893E7,0.0
43643402092555,1.2721217E7,0.0
43643411858180,1.2718662E7,0.0
43643421623805,1.2714764E7,0.0
43643431389430,1.2711077E7,0.0
43643441155055,1.2704903E7,0.0
43643450920680,1.2701327E7,0.0
43643460716826,1.2701776E7,0.0
43643470482451,1.2698282E7,0.0
43643480248076,1.2693647E7,0.0
43643490044222,1.2691829E7,0.0
43643499809847,1.2684064E7,0.0
43643509575472,1.2681283E7,0.0
43643519371618,1.2674203E7,0.0
43643529137243,1.2672637E7,0.0
43643538902868,1.2678071E7,0.0
43643548668493,1.2670305E7,0.0
43643558434118,1.2674118E7,0.0
43643568230212,1.2664663E7,0.0
43643577995837,1.2660362E7,0.0
43643587761462,1.2662525E7,0.0
43643597527087,1.2657008E7,0.0
43643607292712,1.2658434E7,0.0
43643617088857,1.2651269E7,0.0
43643626823962,1.2644158E7,0.0
43643636589587,1.2637314E7,0.0
43643646355212,1.2641448E7,0.0
43643656120837,1.2633349E7,0.0
43643665886462,1.2630415E7,0.0
43643675652087,1.2628585E7,0.0
43643685417712,1.2628695E7,0.0
43643695183337,1.262656E7,0.0
43643704948962,1.2614645E7,0.0
43643714714587,1.2618317E7,0.0
43643724480212,1.2614533E7,0.0
43643734245837,1.2615147E7,0.0
43643744041982,1.2606265E7,0.0
43643753807607,1.260822E7,0.0
43643763603753,1.2604812E7,0.0
43643773369378,1.2603484E7,0.0
43643783135003,1.2592617E7,0.0
43643792931149,1.2595202E7,0.0
43643802696774,1.2590328E7,0.0
43643812492920,1.259456E7,0.0
43643822258545,1.2588162E7,0.0
43643832024170,1.2584197E7,0.0
43643841789795,1.2586639E7,0.0
43643851555420,1.2581458E7,0.0
43643861351566,1.2577435E7,0.0
43643871117191,1.2577295E7,0.0
43643880882816,1.2575214E7,0.0
43643890648441,1.257805E7,0.0
43643900414066,1.2579026E7,0.0
43643910210212,1.2569893E7,0.0
43643919975837,1.2573106E7,0.0
43643929741462,1.2574054E7,0.0
43643939507087,1.2571989E7,0.0
43643949272712,1.2569153E7,0.0
43643959038337,1.2570031E7,0.0
43643968803962,1.2569027E7,0.0
43643978569587,1.2564976E7,0.0
43643988335212,1.2560366E7,0.0
43643998100837,1.2563985E7,0.0
43644009219066,1.2561024E7,0.0
43644018984691,1.256263E7,0.0
43644028750316,1.2558426E7,0.0
43644038515941,1.2561568E7,0.0
43644048312087,1.2556456E7,0.0
43644058077712,1.2548424E7,0.0
43644067843337,1.254985E7,0.0
43644077639482,1.2539695E7,0.0
43644087405107,1.2532123E7,0.0
43644097170732,1.252377E7,0.0
43644106966878,1.2520754E7,0.0
43644116732503,1.2518352E7,0.0
43644126498128,1.2513701E7,0.0
43644136263753,1.2501047E7,0.0
43644146029378,1.2493952E7,0.0
43644155795003,1.248455E7,0.0
43644165560628,1.2479899E7,0.0
43644175326253,1.247251E7,0.0
43644185091878,1.2474578E7,0.0
43644194857503,1.2461251E7,0.0
43644204653649,1.2453094E7,0.0
43644214419274,1.2447272E7,0.0
43644224184899,1.2447088E7,0.0
43644233950524,1.2440985E7,0.0
43644243716149,1.2438121E7,0.0
43644253481774,1.243213E7,0.0
43644263247399,1.2428847E7,0.0
43644273013024,1.2422269E7,0.0
43644282778649,1.2425803E7,0.0
43644292544274,1.2413944E7,0.0
43644302340420,1.2414378E7,0.0
43644312106045,1.2412757E7,0.0
43644321871670,1.2409168E7,0.0
43644331667816,1.2404643E7,0.0
43644341433441,1.2400381E7,0.0
43644351229587,1.2393901E7,0.0
43644360995212,1.2389165E7,0.0
43644370760837,1.2389207E7,0.0
43644380556982,1.2382908E7,0.0
43644390322607,1.2379499E7,0.0
43644400118701,1.2381093E7,0.0
43644409884326,1.2373047E7,0.0
43644419649951,1.2370336E7,0.0
43644429415576,1.2371719E7,0.0
43644439181201,1.2356776E7,0.0
43644448946826,1.2356314E7,0.0
43644458712451,1.2350391E7,0.0
43644468478076,1.2344776E7,0.0
43644478243701,1.2343562E7,0.0
43644488009326,1.2342332E7,0.0
43644497805472,1.2340098E7,0.0
43644507571097,1.2338951E7,0.0
43644517336722,1.2338128E7,0.0
43644527102347,1.2326743E7,0.0
43644536867972,1.2329007E7,0.0
43644546633597,1.2325586E7,0.0
43644556399222,1.2325724E7,0.0
43644566164847,1.232321E7,0.0
43644575930472,1.2316185E7,0.0
43644585696097,1.2311868E7,0.0
43644595492243,1.2316044E7,0.0
43644605227347,1.2320627E7,0.0
43644614992972,1.2314829E7,0.0
43644624758597,1.2315402E7,0.0
43644634524222,1.2311617E7,0.0
43644644289847,1.2309619E7,0.0
43644654055472,1.2306449E7,0.0
43644663821097,1.2306128E7,0.0
43644673586722,1.2306938E7,0.0
43644683352347,1.2307777E7,0.0
43644693117972,1.2304215E7,0.0
43644702883597,1.23055E7,0.0
43644712649222,1.2301364E7,0.0
43644722414847,1.2304424E7,0.0
43644732180472,1.2303475E7,0.0
43644741976618,1.230469E7,0.0
43644751742243,1.2303432E7,0.0
43644761507868,1.2300945E7,0.0
43644771273493,1.2301003E7,0.0
43644781039118,1.230156E7,0.0
43644790835264,1.2296686E7,0.0
43644800570368,1.2296267E7,0.0
43644810335993,1.2298754E7,0.0
43644820101618,1.2288501E7,0.0
43644829867243,1.2291435E7,0.0
43644839632868,1.2284689E7,0.0
43644849398493,1.2274073E7,0.0
43644859164118,1.2275832E7,0.0
43644868929743,1.2264071E7,0.0
43644878695368,1.2261822E7,0.0
43644888460993,1.2250746E7,0.0
43644898226618,1.2244964E7,0.0
43644907992243,1.2235369E7,0.0
43644917757868,1.2228525E7,0.0
43644927554014,1.2220815E7,0.0
43644937319639,1.2210547E7,0.0
43644947085264,1.2205156E7,0.0
43644956881409,1.2200058E7,0.0
43644966647034,1.2195867E7,0.0
43644976412659,1.2189276E7,0.0
43644986370576,1.2187389E7,0.0
43644996136201,1.2181692E7,0.0
43645005901826,1.2173673E7,0.0
43645015667451,1.2174652E7,0.0
43645025433076,1.2166565E7,0.0
43645035198701,1.2163952E7,0.0
43645044964326,1.215828E7,0.0
43645054729951,1.2148924E7,0.0
43645064495576,1.2147302E7,0.0
43645074261201,1.2146492E7,0.0
43645084026826,1.2141281E7,0.0
43645093761930,1.2137426E7,0.0
43645103527555,1.2139956E7,0.0
43645113293180,1.2132705E7,0.0
43645123058805,1.2126393E7,0.0
43645132824430,1.2122425E7,0.0
43645142590055,1.2124129E7,0.0
43645152355680,1.2124704E7,0.0
43645162121305,1.211649E7,0.0
43645171886930,1.2113879E7,0.0
43645181652555,1.211216E7,0.0
43645191387659,1.2105469E7,0.0
43645201153284,1.2102648E7,0.0
43645210918909,1.2097187E7,0.0
43645220684534,1.2094378E7,0.0
43645230450159,1.2091181E7,0.0
43645240215784,1.2092102E7,0.0
43645249981409,1.2091181E7,0.0
43645259747034,1.2084113E7,0.0
43645269512659,1.2085664E7,0.0
43645279278284,1.2085775E7,0.0
43645289043909,1.2080803E7,0.0
43645298809534,1.2077786E7,0.0
43645308605680,1.2077339E7,0.0
43645318371305,1.2077967E7,0.0
43645328167451,1.2076794E7,0.0
43645337933076,1.2076807E7,0.0
43645347698701,1.207576E7,0.0
43645357494847,1.2078511E7,0.0
43645367260472,1.2074558E7,0.0
43645377056618,1.2070538E7,0.0
43645386791722,1.2072786E7,0.0
43645396557347,1.2069867E7,0.0
43645406322972,1.2067701E7,0.0
43645416088597,1.2070382E7,0.0
43645425854222,1.2069069E7,0.0
43645435619847,1.2067842E7,0.0
43645445385472,1.2071318E7,0.0
43645455151097,1.206787E7,0.0
43645464916722,1.206347E7,0.0
43645474682347,1.2070342E7,0.0
43645484447972,1.2067212E7,0.0
43645494213597,1.2068008E7,0.0
43645503979222,1.2068023E7,0.0
43645513775368,1.207428E7,0.0
43645523540993,1.207055E7,0.0
43645533306618,1.2062659E7,0.0
43645543102764,1.2065257E7,0.0
43645552868389,1.2072116E7,0.0
43645562634014,1.2071905E7,0.0
43645572430159,1.2071306E7,0.0
43645582195784,1.207379E7,0.0
43645591961409,1.2071667E7,0.0
43645601727034,1.2076124E7,0.0
43645611492659,1.2071823E7,0.0
43645621288805,1.2072967E7,0.0
43645631054430,1.2065508E7,0.0
43645640820055,1.2065229E7,0.0
43645650585680,1.2059208E7,0.0
43645660351305,1.2050479E7,0.0
43645670147451,1.2044892E7,0.0
43645679913076,1.2035338E7,0.0
43645689678701,1.2030589E7,0.0
43645699474847,1.2020266E7,0.0
43645709240472,1.2010699E7,0.0
43645719036618,1.2008857E7,0.0
43645728802243,1.1996845E7,0.0
43645738567868,1.1991439E7,0.0
43645748364014,1.1983114E7,0.0
43645758129639,1.1982303E7,0.0
43645767925784,1.19687E7,0.0
43645777691409,1.196673E7,0.0
43645787457034,1.1964006E7,0.0
43645797222659,1.1956101E7,0.0
43645806988284,1.1945652E7,0.0
43645816753909,1.1946827E7,0.0
43645826519534,1.1940763E7,0.0
43645836285159,1.1938542E7,0.0
43645846050784,1.1933934E7,0.0
43645855816409,1.1930204E7,0.0
43645865582034,1.192459E7,0.0
43645875347659,1.1920301E7,0.0
43645885113284,1.1922858E7,0.0
43645894878909,1.1916375E7,0.0
43645904644534,1.1910021E7,0.0
43645914440628,1.1909182E7,0.0
43645924206253,1.1908638E7,0.0
43645933971878,1.1902619E7,0.0
43645943737503,1.1901613E7,0.0
43645953503128,1.1899685E7,0.0
43645963457451,1.1896347E7,0.0
43645973223076,1.1892715E7,0.0
43645982988701,1.1890494E7,0.0
43645992754326,1.188872E7,0.0
43646002519951,1.1891164E7,0.0
43646012316097,1.1877742E7,0.0
43646022081722,1.1873719E7,0.0
43646031847347,1.1874878E7,0.0
43646041612972,1.1872712E7,0.0
43646051378597,1.1867168E7,0.0
43646061174743,1.1868119E7,0.0
43646070940368,1.1863509E7,0.0
43646080705993,1.187087E7,0.0
43646090471618,1.1860477E7,0.0
43646100267764,1.1861734E7,0.0
43646110033389,1.1863622E7,0.0
43646119799014,1.1861609E7,0.0
43646129595159,1.1859388E7,0.0
43646139360784,1.1862294E7,0.0
43646149126409,1.1859039E7,0.0
43646158922555,1.1855603E7,0.0
43646168688180,1.1867196E7,0.0
43646178453805,1.1860884E7,0.0
43646188219430,1.1858256E7,0.0
43646197985055,1.1860464E7,0.0
43646207750680,1.1862028E7,0.0
43646217516305,1.1860633E7,0.0
43646227281930,1.1864053E7,0.0
43646237047555,1.1864277E7,0.0
43646246813180,1.1866357E7,0.0
43646256578805,1.1863383E7,0.0
43646266344430,1.1866777E7,0.0
43646276110055,1.1861217E7,0.0
43646285875680,1.1861107E7,0.0
43646295671826,1.1864877E7,0.0
43646305437451,1.1860758E7,0.0
43646315203076,1.1862839E7,0.0
43646324999222,1.1864555E7,0.0
43646334764847,1.1864332E7,0.0
43646344530472,1.1868441E7,0.0
43646354326618,1.1865632E7,0.0
43646364061722,1.1862141E7,0.0
43646373827347,1.1862768E7,0.0
43646383592972,1.1868985E7,0.0
43646393358597,1.1866275E7,0.0
43646403124222,1.1869711E7,0.0
43646412889847,1.1867113E7,0.0
43646422655472,1.1869319E7,0.0
43646432421097,1.1874095E7,0.0
43646442186722,1.1876821E7,0.0
43646451952347,1.1878886E7,0.0
43646461717972,1.1875242E7,0.0
43646471514118,1.1877308E7,0.0
43646481279743,1.1877574E7,0.0
43646491075889,1.1885339E7,0.0
43646500872034,1.1884599E7,0.0
43646510637659,1.1884935E7,0.0
43646520433805,1.1884265E7,0.0
43646530199430,1.1886205E7,0.0
43646539995576,1.1884014E7,0.0
43646549791722,1.1883148E7,0.0
43646559557347,1.1881429E7,0.0
43646569322972,1.1874208E7,0.0
43646579088597,1.1870255E7,0.0
43646588854222,1.1861596E7,0.0
43646598619847,1.1858048E7,0.0
43646608385472,1.1853731E7,0.0
43646618151097,1.1845659E7,0.0
43646627916722,1.1840559E7,0.0
43646637682347,1.1831383E7,0.0
43646647478493,1.1823701E7,0.0
43646657244118,1.1821633E7,0.0
43646667009743,1.1814051E7,0.0
43646676775368,1.1810098E7,0.0
43646686571462,1.1800473E7,0.0
43646696337087,1.179842E7,0.0
43646706102712,1.1796158E7,0.0
43646715898857,1.1791297E7,0.0
43646725664482,1.1782204E7,0.0
43646735430107,1.1784982E7,0.0
43646745226253,1.1779661E7,0.0
43646754991878,1.1772747E7,0.0
43646764757503,1.1769451E7,0.0
43646774523128,1.1767775E7,0.0
43646784288753,1.1770749E7,0.0
43646794084899,1.1762565E7,0.0
43646803850524,1.1764954E7,0.0
43646813616149,1.1756516E7,0.0
43646823381774,1.1763571E7,0.0
43646833147399,1.1757801E7,0.0
43646842943545,1.1755399E7,0.0
43646852709170,1.1752593E7,0.0
43646862474795,1.1749729E7,0.0
43646872240420,1.1751278E7,0.0
43646882036566,1.1750748E7,0.0
43646891802191,1.1744785E7,0.0
43646901567816,1.1744323E7,0.0
43646911363962,1.1737213E7,0.0
43646921129587,1.1738388E7,0.0
43646930895212,1.1733639E7,0.0
43646940691357,1.1731696E7,0.0
43646950456982,1.1736864E7,0.0
43646960222607,1.1733303E7,0.0
43646969988232,1.1730956E7,0.0
43646979753857,1.1719587E7,0.0
43646989519482,1.172502E7,0.0
43646999285107,1.1725005E7,0.0
43647009050732,1.1726067E7,0.0
43647018816357,1.1729965E7,0.0
43647028581982,1.1730592E7,0.0
43647037166826,1.1724014E7,0.0
43647046932451,1.1731739E7,0.0
43647056698076,1.1730552E7,0.0
43647066463701,1.1731305E7,0.0
43647076259847,1.1726318E7,0.0
43647086025472,1.1730411E7,0.0
43647095791097,1.1725831E7,0.0
43647105587243,1.1730271E7,0.0
43647115352868,1.1732198E7,0.0
43647125118493,1.1734141E7,0.0
43647134914639,1.1732997E7,0.0
43647144680264,1.173322E7,0.0
43647154445889,1.1732382E7,0.0
43647164242034,1.1732743E7,0.0
43647174007659,1.1731865E7,0.0
43647183803805,1.1735888E7,0.0
43647193569430,1.1740413E7,0.0
43647203335055,1.1747998E7,0.0
43647213131201,1.1745079E7,0.0
43647222896826,1.1743653E7,0.0
43647232692972,1.1745287E7,0.0
43647242458597,1.1743191E7,0.0
43647252224222,1.1750763E7,0.0
43647261989847,1.174984E7,0.0
43647271785993,1.1758095E7,0.0
43647281551618,1.1750861E7,0.0
43647291317243,1.1757816E7,0.0
43647301113337,1.1761769E7,0.0
43647310878962,1.1767956E7,0.0
43647320644587,1.1764577E7,0.0
43647330440732,1.1764828E7,0.0
43647340206357,1.1769981E7,0.0
43647349971982,1.1774772E7,0.0
43647359737607,1.1778921E7,0.0
43647369503232,1.1779802E7,0.0
43647379299378,1.1784731E7,0.0
43647389065003,1.1785095E7,0.0
43647398830628,1.1791003E7,0.0
43647408596253,1.1794103E7,0.0
43647418361878,1.1796771E7,0.0
43647428158024,1.1799915E7,0.0
43647437923649,1.179782E7,0.0
43647447689274,1.1801409E7,0.0
43647457454899,1.1806983E7,0.0
43647467220524,1.1808225E7,0.0
43647477016670,1.1805377E7,0.0
43647486782295,1.1803951E7,0.0
43647496547920,1.1802302E7,0.0
43647506313545,1.1797413E7,0.0
43647516079170,1.1796437E7,0.0
43647525875316,1.178832E7,0.0
43647535640941,1.1789244E7,0.0
43647545406566,1.1776785E7,0.0
43647555172191,1.1773153E7,0.0
43647564937816,1.1771266E7,0.0
43647574703441,1.1763584E7,0.0
43647584469066,1.1760916E7,0.0
43647594234691,1.1760665E7,0.0
43647604000316,1.1754842E7,0.0
43647613765941,1.1749283E7,0.0
43647623562087,1.1751951E7,0.0
43647633327712,1.1745664E7,0.0
43647643093337,1.1740985E7,0.0
43647652858962,1.1743206E7,0.0
43647662624587,1.1737785E7,0.0
43647672390212,1.1738345E7,0.0
43647682155837,1.1736696E7,0.0
43647691921462,1.1737522E7,0.0
43647701687087,1.1736558E7,0.0
43647711452712,1.1733737E7,0.0
43647721248857,1.1740175E7,0.0
43647731014482,1.1738819E7,0.0
43647740780107,1.1736781E7,0.0
43647750545732,1.1735594E7,0.0
43647760341878,1.1735524E7,0.0
43647770107503,1.1737256E7,0.0
43647779873128,1.1736809E7,0.0
43647789669274,1.1741013E7,0.0
43647799434899,1.17391E7,0.0
43647809200524,1.1733835E7,0.0
43647818996670,1.1736277E7,0.0
43647828762295,1.1740887E7,0.0
43647838527920,1.1728931E7,0.0
43647848324066,1.1733805E7,0.0
43647858089691,1.1736696E7,0.0
43647867885837,1.1737592E7,0.0
43647877651462,1.1736179E7,0.0
43647887417087,1.1735873E7,0.0
43647897213232,1.1739575E7,0.0
43647906978857,1.1733318E7,0.0
43647916775003,1.1742243E7,0.0
43647926540628,1.1735594E7,0.0
43647936306253,1.1739575E7,0.0
43647946071878,1.1745817E7,0.0
43647955868024,1.1743904E7,0.0
43647965633649,1.1748821E7,0.0
43647975399274,1.1750106E7,0.0
43647985195368,1.1747423E7,0.0
43647994960993,1.1750595E7,0.0
43648004726618,1.1757522E7,0.0
43648016550212,1.175449E7,0.0
43648026315837,1.175952E7,0.0
43648036081462,1.175751E7,0.0
43648045847087,1.1762467E7,0.0
43648055643232,1.176466E7,0.0
43648065408857,1.1766447E7,0.0
43648075174482,1.1768375E7,0.0
43648084970628,1.176593E7,0.0
43648094736253,1.1774479E7,0.0
43648104501878,1.1774074E7,0.0
43648114298024,1.1779634E7,0.0
43648124063649,1.1780457E7,0.0
43648133829274,1.1785989E7,0.0
43648143625420,1.178712E7,0.0
43648153391045,1.179328E7,0.0
43648163187191,1.1801577E7,0.0
43648172952816,1.179272E7,0.0
43648182718441,1.1798E7,0.0
43648192514587,1.1803351E7,0.0
43648202280212,1.1804383E7,0.0
43648212076357,1.1806632E7,0.0
43648221841982,1.1810725E7,0.0
43648231607607,1.1816508E7,0.0
43648241373232,1.181634E7,0.0
43648251138857,1.1821146E7,0.0
43648260935003,1.1824331E7,0.0
43648270700628,1.1825209E7,0.0
43648280466253,1.182933E7,0.0
43648290231878,1.1837417E7,0.0
43648299997503,1.1839904E7,0.0
43648309793649,1.1838757E7,0.0
43648319559274,1.1847712E7,0.0
43648329324899,1.1847223E7,0.0
43648339090524,1.1848746E7,0.0
43648348886670,1.1856218E7,0.0
43648358652295,1.1858256E7,0.0
43648368417920,1.1862894E7,0.0
43648378214066,1.1867532E7,0.0
43648387979691,1.1867098E7,0.0
43648397745316,1.1870102E7,0.0
43648407541462,1.1873844E7,0.0
43648417307087,1.1870521E7,0.0
43648427072712,1.1874612E7,0.0
43648436838337,1.1869585E7,0.0
43648446603962,1.1865479E7,0.0
43648456400107,1.1863328E7,0.0
43648466165732,1.1864821E7,0.0
43648475931357,1.1859152E7,0.0
43648485696982,1.1859571E7,0.0
43648495462607,1.1857781E7,0.0
43648505258753,1.1856818E7,0.0
43648515024378,1.1853633E7,0.0
43648524790003,1.184897E7,0.0
43648534586097,1.1845268E7,0.0
43648544351722,1.1844025E7,0.0
43648554147868,1.1843227E7,0.0
43648563913493,1.1845002E7,0.0
43648573679118,1.1842404E7,0.0
43648583475264,1.1844861E7,0.0
43648593240889,1.1837279E7,0.0
43648603037034,1.1844206E7,0.0
43648612802659,1.1841538E7,0.0
43648622568284,1.1840296E7,0.0
43648632333909,1.1841761E7,0.0
43648642099534,1.1840155E7,0.0
43648651865159,1.1842181E7,0.0
43648661630784,1.1844261E7,0.0
43648671396409,1.1843704E7,0.0
43648681162034,1.1843312E7,0.0
43648690927659,1.1841036E7,0.0
43648700723805,1.1844191E7,0.0
43648710489430,1.1846984E7,0.0
43648720255055,1.1846944E7,0.0
43648730020680,1.1848131E7,0.0
43648739786305,1.1852559E7,0.0
43648749582451,1.1850184E7,0.0
43648759348076,1.1854122E7,0.0
43648769113701,1.1863732E7,0.0
43648778879326,1.1856343E7,0.0
43648788644951,1.1858969E7,0.0
43648798441097,1.1863649E7,0.0
43648808206722,1.1863117E7,0.0
43648817972347,1.1863579E7,0.0
43648827737972,1.1861539E7,0.0
43648837534118,1.1861092E7,0.0
43648847299743,1.1863368E7,0.0
43648857065368,1.1864264E7,0.0
43648866861514,1.1864766E7,0.0
43648876627139,1.1867951E7,0.0
43648886392764,1.1868426E7,0.0
43648896188909,1.187351E7,0.0
43648905954534,1.1873832E7,0.0
43648915720159,1.187724E7,0.0
43648925516305,1.1880578E7,0.0
43648935281930,1.1882965E7,0.0
43648945078076,1.1884152E7,0.0
43648954843701,1.1886945E7,0.0
43648964609326,1.1895998E7,0.0
43648974405472,1.1895145E7,0.0
43648984171097,1.1897492E7,0.0
43648994088962,1.1903485E7,0.0
43649003854587,1.1904923E7,0.0
43649013620212,1.1905272E7,0.0
43649023385837,1.191241E7,0.0
43649033151462,1.1916375E7,0.0
43649042947607,1.1913876E7,0.0
43649052713232,1.1914506E7,0.0
43649062478857,1.1921754E7,0.0
43649072244482,1.1923639E7,0.0
43649082010107,1.192727E7,0.0
43649091806253,1.1929981E7,0.0
43649101571878,1.1937021E7,0.0
43649111337503,1.1939787E7,0.0
43649121103128,1.1937761E7,0.0
43649130868753,1.1941029E7,0.0
43649140634378,1.1946937E7,0.0
43649150400003,1.1944493E7,0.0
43649160165628,1.1953084E7,0.0
43649169931253,1.1954173E7,0.0
43649179696878,1.1959634E7,0.0
43649189462503,1.1962091E7,0.0
43649199228128,1.1962413E7,0.0
43649209024222,1.1974397E7,0.0
43649218789847,1.1971576E7,0.0
43649228585993,1.1977778E7,0.0
43649238351618,1.1977722E7,0.0
43649248147764,1.1982903E7,0.0
43649257913389,1.1989217E7,0.0
43649267709534,1.1992724E7,0.0
43649277475159,1.200257E7,0.0
43649287271305,1.1995893E7,0.0
43649297036930,1.1997821E7,0.0
43649306802555,1.2005014E7,0.0
43649316598701,1.2009037E7,0.0
43649326364326,1.2011873E7,0.0
43649336160472,1.2013801E7,0.0
43649345926097,1.201806E7,0.0
43649355691722,1.2014373E7,0.0
43649365487868,1.2009037E7,0.0
43649375253493,1.2013535E7,0.0
43649385049639,1.2016481E7,0.0
43649394815264,1.2018326E7,0.0
43649404580889,1.201348E7,0.0
43649414346514,1.2014514E7,0.0
43649424112139,1.2013703E7,0.0
43649433908284,1.2011146E7,0.0
43649443673909,1.2012235E7,0.0
43649453439534,1.2008367E7,0.0
43649463205159,1.2008688E7,0.0
43649472970784,1.2009567E7,0.0
43649482766930,1.2014275E7,0.0
43649492532555,1.2008352E7,0.0
43649502298180,1.2007306E7,0.0
43649512094326,1.2007737E7,0.0
43649521859951,1.2013382E7,0.0
43649531656097,1.201366E7,0.0
43649541421722,1.2011482E7,0.0
43649551187347,1.2013018E7,0.0
43649560983493,1.201109E7,0.0
43649570749118,1.2017418E7,0.0
43649580545264,1.202186E7,0.0
43649590310889,1.2017488E7,0.0
43649600076514,1.2023381E7,0.0
43649609842139,1.2023102E7,0.0
43649619638284,1.2023341E7,0.0
43649629403909,1.2024598E7,0.0
43649639169534,1.2024262E7,0.0
43649648965628,1.2027991E7,0.0
43649658731253,1.203524E7,0.0
43649668496878,1.2034236E7,0.0
43649678293024,1.2038425E7,0.0
43649688058649,1.203348E7,0.0
43649697824274,1.2039835E7,0.0
43649707589899,1.2037699E7,0.0
43649717355524,1.2038272E7,0.0
43649727151670,1.2039082E7,0.0
43649736917295,1.2046248E7,0.0
43649746682920,1.2050173E7,0.0
43649756448545,1.2050856E7,0.0
43649766214170,1.2052198E7,0.0
43649776010316,1.2052309E7,0.0
43649785775941,1.2052826E7,0.0
43649795541566,1.2057281E7,0.0
43649805307191,1.2056696E7,0.0
43649815072816,1.2054836E7,0.0
43649824838441,1.2058624E7,0.0
43649834604066,1.2061708E7,0.0
43649844369691,1.2067744E7,0.0
43649854135316,1.2067059E7,0.0
43649863900941,1.2067267E7,0.0
43649873697087,1.2068399E7,0.0
43649883462712,1.2073175E7,0.0
43649893228337,1.2074099E7,0.0
43649902993962,1.2078581E7,0.0
43649912759587,1.2079741E7,0.0
43649922525212,1.2080971E7,0.0
43649932290837,1.2089813E7,0.0
43649942056462,1.2089978E7,0.0
43649951822087,1.2094072E7,0.0
43649961587712,1.2092536E7,0.0
43649971383857,1.2097312E7,0.0
43649981118962,1.2092968E7,0.0
43649990884587,1.2100567E7,0.0
43650000650212,1.2104184E7,0.0
43650010385316,1.2107454E7,0.0
43650020150941,1.211413E7,0.0
43650029916566,1.2112732E7,0.0
43650039651670,1.2125959E7,0.0
43650049417295,1.2119953E7,0.0
43650059182920,1.2130416E7,0.0
43650066922920,1.2127859E7,0.0
43650076688545,1.2132357E7,0.0
43650086454170,1.2131197E7,0.0
43650096250316,1.2137148E7,0.0
43650106015941,1.2140611E7,0.0
43650115812087,1.214342E7,0.0
43650125577712,1.2149634E7,0.0
43650135343337,1.2150919E7,0.0
43650145139482,1.2157276E7,0.0
43650154905107,1.2159984E7,0.0
43650164701253,1.2161382E7,0.0
43650174466878,1.2166382E7,0.0
43650184232503,1.2169456E7,0.0
43650193998128,1.2174303E7,0.0
43650203763753,1.2180058E7,0.0
43650213529378,1.2179804E7,0.0
43650223295003,1.2184176E7,0.0
43650233060628,1.2187447E7,0.0
43650242826253,1.2186817E7,0.0
43650252591878,1.2186691E7,0.0
43650262388024,1.2181915E7,0.0
43650272153649,1.2186789E7,0.0
43650281919274,1.2182989E7,0.0
43650291715420,1.2182794E7,0.0
43650301481045,1.2180811E7,0.0
43650311277191,1.2176747E7,0.0
43650321042816,1.2179792E7,0.0
43650330808441,1.2185645E7,0.0
43650340604587,1.2183228E7,0.0
43650350370212,1.218563E7,0.0
43650360166357,1.2185198E7,0.0
43650369931982,1.2193578E7,0.0
43650379697607,1.2184877E7,0.0
43650389463232,1.2187698E7,0.0
43650399228857,1.2189442E7,0.0
43650408994482,1.2190464E7,0.0
43650418760107,1.2189163E7,0.0
43650428525732,1.2193786E7,0.0
43650438291357,1.2193759E7,0.0
43650448056982,1.2198633E7,0.0
43650457822607,1.2196956E7,0.0
43650467588232,1.2199737E7,0.0
43650477384378,1.2205367E7,0.0
43650487180524,1.2201148E7,0.0
43650496946149,1.2204345E7,0.0
43650506742295,1.2198144E7,0.0
43650516538441,1.2204807E7,0.0
43650526304066,1.2202629E7,0.0
43650536100159,1.2207588E7,0.0
43650545896305,1.2210883E7,0.0
43650555692451,1.2213747E7,0.0
43650565458076,1.2210938E7,0.0
43650575223701,1.2215381E7,0.0
43650584989326,1.2217057E7,0.0
43650594785472,1.2221849E7,0.0
43650604551097,1.2223621E7,0.0
43650614316722,1.2224195E7,0.0
43650624112868,1.2227282E7,0.0
43650633878493,1.223059E7,0.0
43650643644118,1.2231303E7,0.0
43650653440264,1.2234307E7,0.0
43650663205889,1.2240998E7,0.0
43650672971514,1.2240258E7,0.0
43650682737139,1.223953E7,0.0
43650692502764,1.2243666E7,0.0
43650702268389,1.2242351E7,0.0
43650712034014,1.2250829E7,0.0
43650721799639,1.2246919E7,0.0
43650731565264,1.22528E7,0.0
43650741330889,1.2249951E7,0.0
43650751096514,1.2252059E7,0.0
43650760862139,1.2256263E7,0.0
43650770627764,1.2260078E7,0.0
43650780393389,1.2260357E7,0.0
43650790189534,1.2261712E7,0.0
43650799955159,1.2268305E7,0.0
43650809720784,1.2267494E7,0.0
43650819516930,1.2268373E7,0.0
43650829282555,1.2274841E7,0.0
43650839048180,1.2272341E7,0.0
43650848844326,1.2276168E7,0.0
43650858609951,1.228047E7,0.0
43650868375576,1.2282245E7,0.0
43650878171722,1.2289633E7,0.0
43650887937347,1.2295961E7,0.0
43650897733493,1.2296058E7,0.0
43650907499118,1.229526E7,0.0
43650917264743,1.2303613E7,0.0
43650927060889,1.230219E7,0.0
43650936826514,1.2309062E7,0.0
43650946622659,1.2307664E7,0.0
43650956388284,1.2312581E7,0.0
43650966153909,1.2314272E7,0.0
43650975919534,1.2316561E7,0.0
43650985715680,1.2318167E7,0.0
43650995481305,1.2323016E7,0.0
43651005246930,1.2330209E7,0.0
43651015043076,1.2330669E7,0.0
43651024808701,1.2332666E7,0.0
43651034574326,1.2341034E7,0.0
43651044781982,1.2339217E7,0.0
43651054547607,1.2339343E7,0.0
43651064313232,1.2343883E7,0.0
43651074078857,1.2345308E7,0.0
43651083844482,1.2346214E7,0.0
43651093640576,1.2349916E7,0.0
43651103406201,1.2350476E7,0.0
43651113171826,1.2353059E7,0.0
43651122937451,1.23463E7,0.0
43651132703076,1.234264E7,0.0
43651142499222,1.2347906E7,0.0
43651152264847,1.2352235E7,0.0
43651162030472,1.2343993E7,0.0
43651171796097,1.234377E7,0.0
43651181561722,1.2339973E7,0.0
43651191357868,1.233877E7,0.0
43651201123493,1.2338115E7,0.0
43651210889118,1.2339706E7,0.0
43651220654743,1.2337458E7,0.0
43651230420368,1.2347025E7,0.0
43651240216514,1.2341704E7,0.0
43651249982139,1.2347444E7,0.0
43651259747764,1.2348059E7,0.0
43651269513389,1.2340964E7,0.0
43651279279014,1.2343157E7,0.0
43651289044639,1.2343898E7,0.0
43651298810264,1.2347138E7,0.0
43651308575889,1.2343589E7,0.0
43651318341514,1.2344636E7,0.0
43651328107139,1.2354484E7,0.0
43651337903284,1.2353282E7,0.0
43651347668909,1.235264E7,0.0
43651357434534,1.2350225E7,0.0
43651367200159,1.2349093E7,0.0
43651376965784,1.2356467E7,0.0
43651386731409,1.2355656E7,0.0
43651396497034,1.2361482E7,0.0
43651406262659,1.2354821E7,0.0
43651416028284,1.2356467E7,0.0
43651425793909,1.2362069E7,0.0
43651435590055,1.236035E7,0.0
43651445325159,1.2369149E7,0.0
43651455090784,1.2368773E7,0.0
43651464856409,1.2371804E7,0.0
43651474591514,1.2371553E7,0.0
43651484357139,1.2371511E7,0.0
43651494122764,1.2377474E7,0.0
43651503857868,1.2375464E7,0.0
43651513623493,1.2380714E7,0.0
43651523389118,1.23776E7,0.0
43651533154743,1.2380102E7,0.0
43651542920368,1.2378885E7,0.0
43651552685993,1.2380604E7,0.0
43651562451618,1.2385912E7,0.0
43651572247764,1.2386442E7,0.0
43651582013389,1.2389278E7,0.0
43651591779014,1.2388495E7,0.0
43651601575159,1.2393258E7,0.0
43651611340784,1.2394305E7,0.0
43651621106409,1.2395241E7,0.0
43651630902555,1.2402058E7,0.0
43651640668180,1.2406108E7,0.0
43651650433805,1.2403581E7,0.0
43651660199430,1.2406332E7,0.0
43651669965055,1.2406904E7,0.0
43651679730680,1.2408412E7,0.0
43651689496305,1.2420035E7,0.0
43651699261930,1.241861E7,0.0
43651709027555,1.2419014E7,0.0
43651718793180,1.2421807E7,0.0
43651728589326,1.2421027E7,0.0
43651738354951,1.2423597E7,0.0
43651748120576,1.2424867E7,0.0
43651757886201,1.2434685E7,0.0
43651767651826,1.2429673E7,0.0
43651777417451,1.2431334E7,0.0
43651787183076,1.2436894E7,0.0
43651796948701,1.2434155E7,0.0
43651806714326,1.2439127E7,0.0
43651816479951,1.2441223E7,0.0
43651826276097,1.2446433E7,0.0
43651836011201,1.2447648E7,0.0
43651845776826,1.2450735E7,0.0
43651855542451,1.2449912E7,0.0
43651865308076,1.2456099E7,0.0
43651875073701,1.2459241E7,0.0
43651884808805,1.2456365E7,0.0
43651894574430,1.2459198E7,0.0
43651904340055,1.2457928E7,0.0
43651914105680,1.2466391E7,0.0
43651923871305,1.246677E7,0.0
43651933636930,1.2464815E7,0.0
43651943402555,1.2465862E7,0.0
43651953168180,1.245906E7,0.0
43651962933805,1.246033E7,0.0
43651972699430,1.2457384E7,0.0
43651982465055,1.2459996E7,0.0
43651992230680,1.2454856E7,0.0
43652001996305,1.2454312E7,0.0
43652011761930,1.2452201E7,0.0
43652021558076,1.245255E7,0.0
43652031323701,1.2451586E7,0.0
43652041089326,1.2452746E7,0.0
43652050854951,1.2451824E7,0.0
43652060651097,1.2451405E7,0.0
43652070416722,1.244889E7,0.0
43652080182347,1.2453752E7,0.0
43652089978493,1.2452831E7,0.0
43652099744118,1.2448012E7,0.0
43652109509743,1.2449646E7,0.0
43652121306618,1.2447829E7,0.0
43652131072243,1.2448569E7,0.0
43652140837868,1.2449493E7,0.0
43652150603493,1.2450971E7,0.0
43652160369118,1.2449618E7,0.0
43652170134743,1.2452256E7,0.0
43652179900368,1.2458011E7,0.0
43652189665993,1.2453709E7,0.0
43652199431618,1.245392E7,0.0
43652209197243,1.2459617E7,0.0
43652218962868,1.2453822E7,0.0
43652228728493,1.2454282E7,0.0
43652238494118,1.2458681E7,0.0
43652248259743,1.2465136E7,0.0
43652258025368,1.2454661E7,0.0
43652267790993,1.2456616E7,0.0
43652277556618,1.2462481E7,0.0
43652287322243,1.2458501E7,0.0
43652297087868,1.246216E7,0.0
43652306853493,1.24698E7,0.0
43652316649639,1.2467092E7,0.0
43652326415264,1.246547E7,0.0
43652336180889,1.2470638E7,0.0
43652345946514,1.2461028E7,0.0
43652355712139,1.2461615E7,0.0
43652365477764,1.2463794E7,0.0
43652375243389,1.2464102E7,0.0
43652385009014,1.2471017E7,0.0
43652394774639,1.2474857E7,0.0
43652404540264,1.2470763E7,0.0
43652414336409,1.2470304E7,0.0
43652424102034,1.247825E7,0.0
43652433867659,1.2479452E7,0.0
43652443633284,1.2473349E7,0.0
43652453398909,1.2476729E7,0.0
43652463164534,1.2481297E7,0.0
43652472930159,1.2479495E7,0.0
43652482695784,1.2483867E7,0.0
43652492461409,1.248339E7,0.0
43652502227034,1.2486661E7,0.0
43652512023180,1.2484997E7,0.0
43652521788805,1.2492722E7,0.0
43652531554430,1.2492443E7,0.0
43652541320055,1.2492443E7,0.0
43652551085680,1.2489439E7,0.0
43652560881826,1.249557E7,0.0
43652570647451,1.2496968E7,0.0
43652580413076,1.2500921E7,0.0
43652590178701,1.2503268E7,0.0
43652599944326,1.249993E7,0.0
43652609740472,1.250433E7,0.0
43652619506097,1.2508757E7,0.0
43652629271722,1.2507499E7,0.0
43652639037347,1.250504E7,0.0
43652648802972,1.2507386E7,0.0
43652658568597,1.2515084E7,0.0
43652668334222,1.2514344E7,0.0
43652678099847,1.2517443E7,0.0
43652687865472,1.2514677E7,0.0
43652697631097,1.2519818E7,0.0
43652707427243,1.2522262E7,0.0
43652717192868,1.2522849E7,0.0
43652726958493,1.2523479E7,0.0
43652736724118,1.2521662E7,0.0
43652746489743,1.2519567E7,0.0
43652756255368,1.2523715E7,0.0
43652766020993,1.2525196E7,0.0
43652775786618,1.2516926E7,0.0
43652785552243,1.2511927E7,0.0
43652795317868,1.2511382E7,0.0
43652805113962,1.2512429E7,0.0
43652814879587,1.2507931E7,0.0
43652824645212,1.250328E7,0.0
43652834410837,1.2502485E7,0.0
43652844176462,1.2502093E7,0.0
43652853942087,1.2500166E7,0.0
43652863707712,1.2494845E7,0.0
43652873473337,1.2501925E7,0.0
43652883238962,1.2500377E7,0.0
43652893004587,1.2501729E7,0.0
43652902800732,1.2498477E7,0.0
43652912566357,1.2501451E7,0.0
43652922331982,1.2507053E7,0.0
43652932097607,1.250437E7,0.0
43652941863232,1.2501995E7,0.0
43652951659378,1.250433E7,0.0
43652961425003,1.2504397E7,0.0
43652971190628,1.2501074E7,0.0
43652980956253,1.2500823E7,0.0
43652990721878,1.2506857E7,0.0
43653000518024,1.2509678E7,0.0
43653010283649,1.2508154E7,0.0
43653020049274,1.2506355E7,0.0
43653029814899,1.2506563E7,0.0
43653039580524,1.2504495E7,0.0
43653049346149,1.2506704E7,0.0
43653059111774,1.2503657E7,0.0
43653068877399,1.2508154E7,0.0
43653078643024,1.2509161E7,0.0
43653088408649,1.2514708E7,0.0
43653098174274,1.2510112E7,0.0
43653107939899,1.2504272E7,0.0
43653117736045,1.2509608E7,0.0
43653127501670,1.2509399E7,0.0
43653137297816,1.2512235E7,0.0
43653147063441,1.2515097E7,0.0
43653156859587,1.2512052E7,0.0
43653166625212,1.2513995E7,0.0
43653176421357,1.2514148E7,0.0
43653186186982,1.2517165E7,0.0
43653195028805,1.2513674E7,0.0
43653204794430,1.2516439E7,0.0
43653214560055,1.2525839E7,0.0
43653224325680,1.2525615E7,0.0
43653234121826,1.2525322E7,0.0
43653243887451,1.2528687E7,0.0
43653253653076,1.2529666E7,0.0
43653263449222,1.2527249E7,0.0
43653273214847,1.2529024E7,0.0
43653282980472,1.2534681E7,0.0
43653292776618,1.2535853E7,0.0
43653302542243,1.2535742E7,0.0
43653312307868,1.2541748E7,0.0
43653322073493,1.2539065E7,0.0
43653331839118,1.2539178E7,0.0
43653341635264,1.2541831E7,0.0
43653351400889,1.2549905E7,0.0
43653361166514,1.2544569E7,0.0
43653370932139,1.2546552E7,0.0
43653380697764,1.2549373E7,0.0
43653390493909,1.2559836E7,0.0
43653400229014,1.2558858E7,0.0
43653409994639,1.2558047E7,0.0
43653419760264,1.2565381E7,0.0
43653429525889,1.2562447E7,0.0
43653439291514,1.2564334E7,0.0
43653449057139,1.2565744E7,0.0
43653458822764,1.257094E7,0.0
43653468588389,1.2571989E7,0.0
43653478354014,1.2577995E7,0.0
43653488119639,1.2574544E7,0.0
43653497885264,1.2573497E7,0.0
43653507650889,1.2575242E7,0.0
43653517447034,1.2577714E7,0.0
43653527212659,1.2576486E7,0.0
43653537008805,1.2574586E7,0.0
43653546774430,1.2573455E7,0.0
43653556540055,1.2567127E7,0.0
43653566336201,1.2566653E7,0.0
43653576101826,1.2561162E7,0.0
43653585897920,1.2561219E7,0.0
43653595633076,1.2562E7,0.0
43653605398701,1.2562532E7,0.0
43653615164326,1.2557349E7,0.0
43653624929951,1.2558564E7,0.0
43653634695576,1.2554583E7,0.0
43653644461201,1.2555143E7,0.0
43653654226826,1.2552809E7,0.0
43653663992451,1.2554543E7,0.0
43653673758076,1.2551777E7,0.0
43653683523701,1.2552894E7,0.0
43653693289326,1.2555226E7,0.0
43653703054951,1.255436E7,0.0
43653712820576,1.2551456E7,0.0
43653722616670,1.2551107E7,0.0
43653732382295,1.2555492E7,0.0
43653742147920,1.2555379E7,0.0
43653751944066,1.2555786E7,0.0
43653761709691,1.2553956E7,0.0
43653771475316,1.2565368E7,0.0
43653781271462,1.2555798E7,0.0
43653791037087,1.2558607E7,0.0
43653800802712,1.2554752E7,0.0
43653810568337,1.2558481E7,0.0
43653820333962,1.2557783E7,0.0
43653830099587,1.2561819E7,0.0
43653839865212,1.2555073E7,0.0
43653849630837,1.255432E7,0.0
43653859396462,1.255633E7,0.0
43653869162087,1.2556247E7,0.0
43653878927712,1.2559809E7,0.0
43653888693337,1.2562321E7,0.0
43653898458962,1.256024E7,0.0
43653908224587,1.2558662E7,0.0
43653917990212,1.2561862E7,0.0
43653927755837,1.2558341E7,0.0
43653937521462,1.2564444E7,0.0
43653947287087,1.2559849E7,0.0
43653957052712,1.2562615E7,0.0
43653966818337,1.2565338E7,0.0
43653976583962,1.2564695E7,0.0
43653986349587,1.2566078E7,0.0
43653996115212,1.2571946E7,0.0
43654005880837,1.2571668E7,0.0
43654015646462,1.2571959E7,0.0
43654025412087,1.2571442E7,0.0
43654035177712,1.2570716E7,0.0
43654044943337,1.257175E7,0.0
43654054708962,1.257157E7,0.0
43654064474587,1.2576429E7,0.0
43654074240212,1.2573301E7,0.0
43654084005837,1.2582337E7,0.0
43654093771462,1.2579571E7,0.0
43654103537087,1.258069E7,0.0
43654113302712,1.2582031E7,0.0
43654123068337,1.2584683E7,0.0
43654132833962,1.2586277E7,0.0
43654142599587,1.2591068E7,0.0
43654152365212,1.2593889E7,0.0
43654162130837,1.2594266E7,0.0
43654171025732,1.2597325E7,0.0
43654180791357,1.2596417E7,0.0
43654190556982,1.2598332E7,0.0
43654200322607,1.2597074E7,0.0
43654210088232,1.2598512E7,0.0
43654219853857,1.2603665E7,0.0
43654229619482,1.2606544E7,0.0
43654239385107,1.2603625E7,0.0
43654249150732,1.2606614E7,0.0
43654258916357,1.2608612E7,0.0
43654268681982,1.2607841E7,0.0
43654278417087,1.2606908E7,0.0
43654288182712,1.2607535E7,0.0
43654297948337,1.2614799E7,0.0
43654307713962,1.2613737E7,0.0
43654317479587,1.2606489E7,0.0
43654327214691,1.2608597E7,0.0
43654336980316,1.2606865E7,0.0
43654346745941,1.2613514E7,0.0
43654356511566,1.2602046E7,0.0
43654366277191,1.2597632E7,0.0
43654376042816,1.2595942E7,0.0
43654385808441,1.259206E7,0.0
43654395574066,1.2589881E7,0.0
43654405339691,1.2586947E7,0.0
43654415105316,1.2583511E7,0.0
43654424870941,1.258178E7,0.0
43654434636566,1.257738E7,0.0
43654444402191,1.2578595E7,0.0
43654454167816,1.257231E7,0.0
43654463933441,1.2573635E7,0.0
43654473699066,1.2572812E7,0.0
43654483464691,1.2575395E7,0.0
43654493230316,1.2565242E7,0.0
43654503026462,1.256851E7,0.0
43654512792087,1.2565549E7,0.0
43654522557712,1.2569153E7,0.0
43654532353857,1.2565925E7,0.0
43654542119482,1.2562755E7,0.0
43654551885107,1.2563551E7,0.0
43654561681253,1.2565478E7,0.0
43654571416357,1.2564695E7,0.0
43654581181982,1.2569223E7,0.0
43654590947607,1.2569321E7,0.0
43654600682712,1.2564013E7,0.0
43654610448337,1.2568146E7,0.0
43654620213962,1.25658E7,0.0
43654629949066,1.2567042E7,0.0
43654639714691,1.257034E7,0.0
43654649480316,1.2570995E7,0.0
43654659245941,1.2576652E7,0.0
43654669011566,1.2571374E7,0.0
43654678777191,1.2574529E7,0.0
43654688542816,1.257369E7,0.0
43654698308441,1.2574614E7,0.0
43654708104587,1.2576233E7,0.0
43654717870212,1.2571946E7,0.0
43654727635837,1.257045E7,0.0
43654737401462,1.257284E7,0.0
43654747167087,1.2571723E7,0.0
43654756963232,1.2574167E7,0.0
43654766728857,1.2578763E7,0.0
43654776494482,1.2577952E7,0.0
43654786260107,1.2579978E7,0.0
43654796025732,1.2582658E7,0.0
43654805791357,1.2580495E7,0.0
43654815556982,1.2583664E7,0.0
43654825322607,1.2585216E7,0.0
43654835088232,1.2585509E7,0.0
43654844853857,1.2586794E7,0.0
43654854619482,1.2587547E7,0.0
43654864385107,1.2588664E7,0.0
43654874150732,1.2587128E7,0.0
43654883916357,1.258629E7,0.0
43654893681982,1.2590258E7,0.0
43654903447607,1.2595119E7,0.0
43654913213232,1.2590383E7,0.0
43654922978857,1.2590411E7,0.0
43654932744482,1.2588734E7,0.0
43654942510107,1.2588441E7,0.0
43654952306253,1.2593819E7,0.0
43654962041357,1.2595159E7,0.0
43654971806982,1.2598932E7,0.0
43654981572607,1.2595676E7,0.0
43654991338232,1.2599253E7,0.0
43655001103857,1.259731E7,0.0
43655010838962,1.2596138E7,0.0
43655020604587,1.2594419E7,0.0
43655030370212,1.2597102E7,0.0
43655040135837,1.2599727E7,0.0
43655049901462,1.2597451E7,0.0
43655059667087,1.2598246E7,0.0
43655069432712,1.2596808E7,0.0
43655079198337,1.2600676E7,0.0
43655088963962,1.2607703E7,0.0
43655098729587,1.2602897E7,0.0
43655108495212,1.2597408E7,0.0
43655118260837,1.2601514E7,0.0
43655128026462,1.2609729E7,0.0
43655137792087,1.2608291E7,0.0
43655147637920,1.2605914E7,0.0
43655157403545,1.2609059E7,0.0
43655167169170,1.2602019E7,0.0
43655176934795,1.2611531E7,0.0
43655186730941,1.2607131E7,0.0
43655196496566,1.2607061E7,0.0
43655206262191,1.2604601E7,0.0
43655216058337,1.2606795E7,0.0
43655225823962,1.2606042E7,0.0
43655235589587,1.2604338E7,0.0
43655245385732,1.259467E7,0.0
43655255151357,1.259467E7,0.0
43655264916982,1.2590873E7,0.0
43655274682607,1.2584028E7,0.0
43655284448232,1.2583943E7,0.0
43655294213857,1.2578273E7,0.0
43655303979482,1.2573189E7,0.0
43655313745107,1.2568942E7,0.0
43655323510732,1.2569823E7,0.0
43655333276357,1.2562351E7,0.0
43655343041982,1.2564111E7,0.0
43655352807607,1.2558383E7,0.0
43655362573232,1.2552683E7,0.0
43655372338857,1.2559809E7,0.0
43655382104482,1.2550086E7,0.0
43655391870107,1.2542433E7,0.0
43655401635732,1.2540631E7,0.0
43655411401357,1.2541859E7,0.0
43655421166982,1.2540659E7,0.0
43655430932607,1.2537278E7,0.0
43655440728753,1.2539191E7,0.0
43655450494378,1.2535938E7,0.0
43655460260003,1.2533185E7,0.0
43655470025628,1.2529638E7,0.0
43655479791253,1.25338E7,0.0
43655489556878,1.2530155E7,0.0
43655499322503,1.2525434E7,0.0
43655509088128,1.2528828E7,0.0
43655518853753,1.2527543E7,0.0
43655528619378,1.2520824E7,0.0
43655538385003,1.251722E7,0.0
43655548150628,1.2520671E7,0.0
43655557916253,1.2519624E7,0.0
43655567681878,1.2516635E7,0.0
43655577447503,1.2511272E7,0.0
43655587213128,1.2514442E7,0.0
43655596978753,1.2509987E7,0.0
43655606744378,1.2509176E7,0.0
43655616510003,1.2510125E7,0.0
43655626275628,1.251081E7,0.0
43655636041253,1.2505753E7,0.0
43655645806878,1.250701E7,0.0
43655655572503,1.2499413E7,0.0
43655665338128,1.2503657E7,0.0
43655675103753,1.2505753E7,0.0
43655684869378,1.2496298E7,0.0
43655694635003,1.2494551E7,0.0
43655704400628,1.2501506E7,0.0
43655714166253,1.2499034E7,0.0
43655723931878,1.2496632E7,0.0
43655733697503,1.2500515E7,0.0
43655743463128,1.2492541E7,0.0
43655753228753,1.2490194E7,0.0
43655762994378,1.2492385E7,0.0
43655772760003,1.2488405E7,0.0
43655782556149,1.2495277E7,0.0
43655792321774,1.2494496E7,0.0
43655802087399,1.2492024E7,0.0
43655811853024,1.2494077E7,0.0
43655821618649,1.2493098E7,0.0
43655831414795,1.2493603E7,0.0
43655841180420,1.2494873E7,0.0
43655850946045,1.2490069E7,0.0
43655860711670,1.2490207E7,0.0
43655870477295,1.2493407E7,0.0
43655880242920,1.2496005E7,0.0
43655890008545,1.2494943E7,0.0
43655899774170,1.2488714E7,0.0
43655909539795,1.2493532E7,0.0
43655919305420,1.2493783E7,0.0
43655929071045,1.2493184E7,0.0
43655938836670,1.2492764E7,0.0
43655948602295,1.2493043E7,0.0
43655958367920,1.2488909E7,0.0
43655968133545,1.249173E7,0.0
43655977899170,1.2491422E7,0.0
43655987664795,1.2490332E7,0.0
43655997430420,1.24924E7,0.0
43656007196045,1.2488056E7,0.0
43656016961670,1.2493924E7,0.0
43656026757816,1.249557E7,0.0
43656036523441,1.2493979E7,0.0
43656046289066,1.249803E7,0.0
43656056054691,1.2491045E7,0.0
43656065820316,1.2494955E7,0.0
43656075585941,1.2487009E7,0.0
43656085351566,1.2488824E7,0.0
43656095117191,1.2481533E7,0.0
43656104882816,1.2475444E7,0.0
43656114648441,1.2470653E7,0.0
43656124414066,1.2468949E7,0.0
43656134179691,1.2461239E7,0.0
43656143945316,1.2461251E7,0.0
43656153710941,1.2453877E7,0.0
43656163476566,1.2448948E7,0.0
43656173242191,1.2448948E7,0.0
43656183007816,1.2444072E7,0.0
43656192773441,1.2437451E7,0.0
43656202539066,1.2437857E7,0.0
43656212304691,1.2433443E7,0.0
43656222160368,1.2430664E7,0.0
43656231925993,1.2437466E7,0.0
43656241691618,1.2425705E7,0.0
43656251457243,1.2421599E7,0.0
43656261222868,1.2422367E7,0.0
43656271019014,1.2413512E7,0.0
43656280784639,1.2414182E7,0.0
43656290550264,1.2416248E7,0.0
43656300315889,1.2414657E7,0.0
43656310081514,1.2411361E7,0.0
43656319877659,1.24103E7,0.0
43656329643284,1.2409293E7,0.0
43656339408909,1.2411765E7,0.0
43656349174534,1.2405647E7,0.0
43656358940159,1.2409489E7,0.0
43656368705784,1.2406304E7,0.0
43656378471409,1.2412561E7,0.0
43656388237034,1.2406932E7,0.0
43656398002659,1.2408847E7,0.0
43656407768284,1.2403413E7,0.0
43656417533909,1.2401136E7,0.0
43656427269014,1.2401234E7,0.0
43656437034639,1.2394277E7,0.0
43656446800264,1.2393466E7,0.0
43656456565889,1.2395241E7,0.0
43656466331514,1.2392392E7,0.0
43656476097139,1.239189E7,0.0
43656485862764,1.2390982E7,0.0
43656495628389,1.2394767E7,0.0
43656505394014,1.2389529E7,0.0
43656515159639,1.2393328E7,0.0
43656524925264,1.2393677E7,0.0
43656534690889,1.239309E7,0.0
43656544456514,1.2393984E7,0.0
43656554222139,1.2396905E7,0.0
43656563987764,1.2393886E7,0.0
43656573753389,1.239383E7,0.0
43656583519014,1.2395033E7,0.0
43656593284639,1.2396988E7,0.0
43656603050264,1.2395424E7,0.0
43656612815889,1.2395366E7,0.0
43656622581514,1.2396737E7,0.0
43656632347139,1.2393454E7,0.0
43656642112764,1.239812E7,0.0
43656651878389,1.239886E7,0.0
43656661644014,1.2398664E7,0.0
43656671409639,1.2401443E7,0.0
43656681175264,1.2402421E7,0.0
43656690940889,1.2398202E7,0.0
43656700706514,1.2401862E7,0.0
43656710502659,1.239816E7,0.0
43656720268284,1.2399656E7,0.0
43656730033909,1.239953E7,0.0
43656739799534,1.240203E7,0.0
43656749565159,1.2399417E7,0.0
43656759361305,1.2400256E7,0.0
43656769126930,1.2406528E7,0.0
43656778892555,1.2405481E7,0.0
43656788658180,1.2410089E7,0.0
43656798423805,1.2408302E7,0.0
43656808219951,1.2413259E7,0.0
43656817985576,1.2409238E7,0.0
43656827751201,1.2411793E7,0.0
43656837516826,1.2412491E7,0.0
43656847282451,1.2412325E7,0.0
43656857048076,1.2410493E7,0.0
43656866813701,1.2416333E7,0.0
43656876579326,1.2416514E7,0.0
43656886344951,1.241678E7,0.0
43656896110576,1.2420161E7,0.0
43656905906722,1.2421795E7,0.0
43656915672347,1.2424056E7,0.0
43656925437972,1.242449E7,0.0
43656935203597,1.2420314E7,0.0
43656944969222,1.2418093E7,0.0
43656954734847,1.2417925E7,0.0
43656964500472,1.2415691E7,0.0
43656974266097,1.2408804E7,0.0
43656984031722,1.2402728E7,0.0
43656993797347,1.2398285E7,0.0
43657003593493,1.238929E7,0.0
43657013359118,1.2388467E7,0.0
43657023124743,1.2387644E7,0.0
43657032890368,1.2375757E7,0.0
43657042655993,1.2377642E7,0.0
43657052421618,1.236746E7,0.0
43657062187243,1.2360365E7,0.0
43657071952868,1.2359037E7,0.0
43657081718493,1.2362641E7,0.0
43657091484118,1.2356299E7,0.0
43657101280212,1.2354261E7,0.0
43657111045837,1.2351076E7,0.0
43657120811462,1.234648E7,0.0
43657130577087,1.2344568E7,0.0
43657140373232,1.23381E7,0.0
43657150138857,1.2341285E7,0.0
43657159904482,1.2333168E7,0.0
43657169700628,1.2334343E7,0.0
43657179466253,1.23343E7,0.0
43657189231878,1.2331914E7,0.0
43657200770316,1.2330864E7,0.0
43657210535941,1.2329384E7,0.0
43657220301566,1.2330265E7,0.0
43657230067191,1.2321536E7,0.0
43657239832816,1.2316114E7,0.0
43657249598441,1.2322022E7,0.0
43657259364066,1.2318684E7,0.0
43657269129691,1.2319299E7,0.0
43657278895316,1.2316451E7,0.0
43657288660941,1.2317442E7,0.0
43657298457087,1.2315585E7,0.0
43657308192191,1.2315221E7,0.0
43657317957816,1.2315166E7,0.0
43657327723441,1.231448E7,0.0
43657337489066,1.231173E7,0.0
43657347254691,1.2313517E7,0.0
43657357020316,1.2317414E7,0.0
43657366785941,1.2312804E7,0.0
43657376551566,1.2310625E7,0.0
43657386317191,1.2316619E7,0.0
43657396082816,1.2311185E7,0.0
43657405848441,1.2308753E7,0.0
43657415614066,1.231254E7,0.0
43657425410212,1.2311213E7,0.0
43657435175837,1.2306785E7,0.0
43657444971982,1.2306728E7,0.0
43657454737607,1.2308419E7,0.0
43657464503232,1.2308909E7,0.0
43657474299378,1.2311687E7,0.0
43657484065003,1.2307511E7,0.0
43657493861149,1.2308E7,0.0
43657503626774,1.2311157E7,0.0
43657513392399,1.2312094E7,0.0
43657523158024,1.2311464E7,0.0
43657532923649,1.2311255E7,0.0
43657542719795,1.2307456E7,0.0
43657552485420,1.2309396E7,0.0
43657562251045,1.2313266E7,0.0
43657572016670,1.23067E7,0.0
43657581782295,1.2311323E7,0.0
43657591578441,1.2308949E7,0.0
43657601344066,1.2313168E7,0.0
43657611109691,1.2315949E7,0.0
43657620875316,1.2312064E7,0.0
43657630640941,1.2316142E7,0.0
43657640406566,1.2316142E7,0.0
43657650172191,1.2311925E7,0.0
43657659937816,1.2318546E7,0.0
43657669703441,1.2318519E7,0.0
43657679469066,1.2321982E7,0.0
43657689265212,1.2322805E7,0.0
43657699030837,1.2327065E7,0.0
43657708796462,1.2321955E7,0.0
43657718562087,1.2328729E7,0.0
43657728327712,1.2324663E7,0.0
43657738123857,1.2321325E7,0.0
43657747889482,1.2322567E7,0.0
43657757655107,1.2330629E7,0.0
43657767420732,1.2332694E7,0.0
43657777186357,1.2332205E7,0.0
43657786982503,1.2330656E7,0.0
43657796748128,1.2333296E7,0.0
43657806513753,1.2334845E7,0.0
43657816279378,1.2335166E7,0.0
43657826045003,1.2331299E7,0.0
43657835841149,1.233039E7,0.0
43657845606774,1.2325908E7,0.0
43657855372399,1.2323448E7,0.0
43657865138024,1.232141E7,0.0
43657874903649,1.2318574E7,0.0
43657884699795,1.2307679E7,0.0
43657894465420,1.2311296E7,0.0
43657904231045,1.2307189E7,0.0
43657913996670,1.2299005E7,0.0
43657923762295,1.2296031E7,0.0
43657933527920,1.2285595E7,0.0
43657943293545,1.2285876E7,0.0
43657953059170,1.2283166E7,0.0
43657962824795,1.228096E7,0.0
43657972590420,1.2281642E7,0.0
43657982386566,1.2279408E7,0.0
43657992121670,1.2268388E7,0.0
43658001887295,1.2270762E7,0.0
43658011652920,1.2273445E7,0.0
43658021418545,1.2269896E7,0.0
43658031184170,1.2267535E7,0.0
43658040919274,1.2258093E7,0.0
43658050684899,1.226051E7,0.0
43658060450524,1.2256976E7,0.0
43658070216149,1.2253457E7,0.0
43658079981774,1.2263514E7,0.0
43658089747399,1.225153E7,0.0
43658099513024,1.2251976E7,0.0
43658109278649,1.225171E7,0.0
43658119044274,1.2249461E7,0.0
43658128809899,1.2246625E7,0.0
43658138575524,1.2247087E7,0.0
